'Elapsed time','V1'
'seconds','mV'
0.000,-0.335
0.003,-0.335
0.006,-0.335
0.008,-0.335
0.011,-0.335
0.014,-0.335
0.017,-0.335
0.019,-0.335
0.022,-0.330
0.025,-0.320
0.028,-0.320
0.031,-0.315
0.033,-0.300
0.036,-0.315
0.039,-0.310
0.042,-0.320
0.044,-0.330
0.047,-0.330
0.050,-0.340
0.053,-0.340
0.056,-0.335
0.058,-0.320
0.061,-0.330
0.064,-0.320
0.067,-0.305
0.069,-0.310
0.072,-0.320
0.075,-0.330
0.078,-0.335
0.081,-0.345
0.083,-0.350
0.086,-0.345
0.089,-0.335
0.092,-0.325
0.094,-0.330
0.097,-0.320
0.100,-0.310
0.103,-0.330
0.106,-0.325
0.108,-0.320
0.111,-0.330
0.114,-0.340
0.117,-0.340
0.119,-0.335
0.122,-0.345
0.125,-0.330
0.128,-0.315
0.131,-0.320
0.133,-0.315
0.136,-0.320
0.139,-0.320
0.142,-0.330
0.144,-0.345
0.147,-0.340
0.150,-0.345
0.153,-0.340
0.156,-0.345
0.158,-0.335
0.161,-0.325
0.164,-0.315
0.167,-0.310
0.169,-0.310
0.172,-0.330
0.175,-0.330
0.178,-0.330
0.181,-0.345
0.183,-0.350
0.186,-0.345
0.189,-0.340
0.192,-0.335
0.194,-0.320
0.197,-0.310
0.200,-0.300
0.203,-0.315
0.206,-0.315
0.208,-0.315
0.211,-0.315
0.214,-0.310
0.217,-0.325
0.219,-0.310
0.222,-0.295
0.225,-0.275
0.228,-0.275
0.231,-0.250
0.233,-0.240
0.236,-0.255
0.239,-0.260
0.242,-0.265
0.244,-0.290
0.247,-0.310
0.250,-0.320
0.253,-0.325
0.256,-0.340
0.258,-0.340
0.261,-0.335
0.264,-0.315
0.267,-0.300
0.269,-0.320
0.272,-0.305
0.275,-0.330
0.278,-0.315
0.281,-0.330
0.283,-0.340
0.286,-0.325
0.289,-0.330
0.292,-0.320
0.294,-0.310
0.297,-0.320
0.300,-0.315
0.303,-0.325
0.306,-0.335
0.308,-0.345
0.311,-0.350
0.314,-0.365
0.317,-0.370
0.319,-0.365
0.322,-0.360
0.325,-0.345
0.328,-0.345
0.331,-0.340
0.333,-0.335
0.336,-0.345
0.339,-0.345
0.342,-0.355
0.344,-0.355
0.347,-0.355
0.350,-0.360
0.353,-0.365
0.356,-0.365
0.358,-0.340
0.361,-0.345
0.364,-0.345
0.367,-0.335
0.369,-0.345
0.372,-0.350
0.375,-0.350
0.378,-0.350
0.381,-0.345
0.383,-0.365
0.386,-0.350
0.389,-0.350
0.392,-0.345
0.394,-0.345
0.397,-0.335
0.400,-0.315
0.403,-0.310
0.406,-0.300
0.408,-0.300
0.411,-0.295
0.414,-0.315
0.417,-0.350
0.419,-0.390
0.422,-0.440
0.425,-0.505
0.428,-0.585
0.431,-0.660
0.433,-0.740
0.436,-0.795
0.439,-0.835
0.442,-0.815
0.444,-0.775
0.447,-0.700
0.450,-0.605
0.453,-0.525
0.456,-0.450
0.458,-0.395
0.461,-0.375
0.464,-0.385
0.467,-0.395
0.469,-0.425
0.472,-0.430
0.475,-0.430
0.478,-0.390
0.481,-0.360
0.483,-0.325
0.486,-0.295
0.489,-0.275
0.492,-0.280
0.494,-0.265
0.497,-0.275
0.500,-0.265
0.503,-0.275
0.506,-0.285
0.508,-0.280
0.511,-0.285
0.514,-0.295
0.517,-0.300
0.519,-0.295
0.522,-0.290
0.525,-0.285
0.528,-0.285
0.531,-0.270
0.533,-0.255
0.536,-0.270
0.539,-0.265
0.542,-0.285
0.544,-0.285
0.547,-0.295
0.550,-0.300
0.553,-0.295
0.556,-0.310
0.558,-0.285
0.561,-0.270
0.564,-0.280
0.567,-0.270
0.569,-0.275
0.572,-0.285
0.575,-0.290
0.578,-0.285
0.581,-0.300
0.583,-0.305
0.586,-0.305
0.589,-0.300
0.592,-0.295
0.594,-0.285
0.597,-0.280
0.600,-0.285
0.603,-0.285
0.606,-0.280
0.608,-0.290
0.611,-0.295
0.614,-0.305
0.617,-0.310
0.619,-0.310
0.622,-0.310
0.625,-0.305
0.628,-0.300
0.631,-0.295
0.633,-0.285
0.636,-0.290
0.639,-0.275
0.642,-0.305
0.644,-0.315
0.647,-0.310
0.650,-0.320
0.653,-0.320
0.656,-0.310
0.658,-0.310
0.661,-0.300
0.664,-0.295
0.667,-0.285
0.669,-0.290
0.672,-0.300
0.675,-0.305
0.678,-0.310
0.681,-0.320
0.683,-0.315
0.686,-0.325
0.689,-0.320
0.692,-0.325
0.694,-0.305
0.697,-0.300
0.700,-0.305
0.703,-0.310
0.706,-0.305
0.708,-0.310
0.711,-0.330
0.714,-0.330
0.717,-0.325
0.719,-0.335
0.722,-0.320
0.725,-0.310
0.728,-0.305
0.731,-0.295
0.733,-0.290
0.736,-0.295
0.739,-0.295
0.742,-0.310
0.744,-0.330
0.747,-0.330
0.750,-0.340
0.753,-0.330
0.756,-0.335
0.758,-0.325
0.761,-0.315
0.764,-0.315
0.767,-0.310
0.769,-0.315
0.772,-0.315
0.775,-0.325
0.778,-0.320
0.781,-0.335
0.783,-0.340
0.786,-0.335
0.789,-0.335
0.792,-0.335
0.794,-0.325
0.797,-0.310
0.800,-0.305
0.803,-0.315
0.806,-0.325
0.808,-0.320
0.811,-0.335
0.814,-0.345
0.817,-0.340
0.819,-0.335
0.822,-0.340
0.825,-0.325
0.828,-0.320
0.831,-0.305
0.833,-0.305
0.836,-0.315
0.839,-0.295
0.842,-0.315
0.844,-0.305
0.847,-0.315
0.850,-0.320
0.853,-0.320
0.856,-0.320
0.858,-0.305
0.861,-0.300
0.864,-0.290
0.867,-0.290
0.869,-0.285
0.872,-0.295
0.875,-0.295
0.878,-0.310
0.881,-0.310
0.883,-0.320
0.886,-0.310
0.889,-0.295
0.892,-0.300
0.894,-0.285
0.897,-0.280
0.900,-0.270
0.903,-0.275
0.906,-0.280
0.908,-0.280
0.911,-0.290
0.914,-0.295
0.917,-0.300
0.919,-0.295
0.922,-0.295
0.925,-0.285
0.928,-0.280
0.931,-0.280
0.933,-0.275
0.936,-0.265
0.939,-0.265
0.942,-0.275
0.944,-0.290
0.947,-0.290
0.950,-0.300
0.953,-0.290
0.956,-0.285
0.958,-0.275
0.961,-0.275
0.964,-0.270
0.967,-0.265
0.969,-0.260
0.972,-0.270
0.975,-0.280
0.978,-0.295
0.981,-0.295
0.983,-0.300
0.986,-0.290
0.989,-0.280
0.992,-0.280
0.994,-0.270
0.997,-0.270
1.000,-0.245
1.003,-0.260
1.006,-0.270
1.008,-0.280
1.011,-0.290
1.014,-0.295
1.017,-0.295
1.019,-0.290
1.022,-0.300
1.025,-0.295
1.028,-0.290
1.031,-0.285
1.033,-0.255
1.036,-0.275
1.039,-0.285
1.042,-0.290
1.044,-0.295
1.047,-0.300
1.050,-0.315
1.053,-0.315
1.056,-0.305
1.058,-0.295
1.061,-0.290
1.064,-0.290
1.067,-0.270
1.069,-0.285
1.072,-0.290
1.075,-0.285
1.078,-0.295
1.081,-0.310
1.083,-0.305
1.086,-0.310
1.089,-0.305
1.092,-0.290
1.094,-0.290
1.097,-0.275
1.100,-0.275
1.103,-0.280
1.106,-0.290
1.108,-0.295
1.111,-0.300
1.114,-0.310
1.117,-0.305
1.119,-0.310
1.122,-0.310
1.125,-0.305
1.128,-0.285
1.131,-0.290
1.133,-0.270
1.136,-0.280
1.139,-0.280
1.142,-0.300
1.144,-0.290
1.147,-0.300
1.150,-0.305
1.153,-0.300
1.156,-0.300
1.158,-0.305
1.161,-0.290
1.164,-0.280
1.167,-0.275
1.169,-0.285
1.172,-0.285
1.175,-0.285
1.178,-0.295
1.181,-0.305
1.183,-0.305
1.186,-0.305
1.189,-0.310
1.192,-0.290
1.194,-0.290
1.197,-0.285
1.200,-0.270
1.203,-0.270
1.206,-0.280
1.208,-0.280
1.211,-0.280
1.214,-0.275
1.217,-0.275
1.219,-0.265
1.222,-0.260
1.225,-0.240
1.228,-0.225
1.231,-0.225
1.233,-0.200
1.236,-0.205
1.239,-0.220
1.242,-0.240
1.244,-0.240
1.247,-0.270
1.250,-0.280
1.253,-0.305
1.256,-0.305
1.258,-0.295
1.261,-0.280
1.264,-0.270
1.267,-0.260
1.269,-0.270
1.272,-0.275
1.275,-0.280
1.278,-0.270
1.281,-0.290
1.283,-0.290
1.286,-0.290
1.289,-0.285
1.292,-0.290
1.294,-0.280
1.297,-0.285
1.300,-0.270
1.303,-0.280
1.306,-0.295
1.308,-0.300
1.311,-0.300
1.314,-0.305
1.317,-0.310
1.319,-0.310
1.322,-0.305
1.325,-0.300
1.328,-0.290
1.331,-0.300
1.333,-0.275
1.336,-0.285
1.339,-0.295
1.342,-0.300
1.344,-0.295
1.347,-0.300
1.350,-0.305
1.353,-0.315
1.356,-0.310
1.358,-0.305
1.361,-0.305
1.364,-0.285
1.367,-0.275
1.369,-0.275
1.372,-0.295
1.375,-0.290
1.378,-0.295
1.381,-0.300
1.383,-0.305
1.386,-0.305
1.389,-0.280
1.392,-0.270
1.394,-0.250
1.397,-0.230
1.400,-0.230
1.403,-0.240
1.406,-0.265
1.408,-0.310
1.411,-0.360
1.414,-0.435
1.417,-0.515
1.419,-0.595
1.422,-0.660
1.425,-0.705
1.428,-0.730
1.431,-0.705
1.433,-0.650
1.436,-0.580
1.439,-0.490
1.442,-0.400
1.444,-0.330
1.447,-0.285
1.450,-0.285
1.453,-0.295
1.456,-0.315
1.458,-0.335
1.461,-0.350
1.464,-0.330
1.467,-0.305
1.469,-0.265
1.472,-0.240
1.475,-0.210
1.478,-0.230
1.481,-0.225
1.483,-0.245
1.486,-0.250
1.489,-0.245
1.492,-0.255
1.494,-0.240
1.497,-0.240
1.500,-0.230
1.503,-0.225
1.506,-0.235
1.508,-0.235
1.511,-0.245
1.514,-0.255
1.517,-0.265
1.519,-0.260
1.522,-0.255
1.525,-0.245
1.528,-0.245
1.531,-0.245
1.533,-0.220
1.536,-0.225
1.539,-0.225
1.542,-0.240
1.544,-0.255
1.547,-0.255
1.550,-0.265
1.553,-0.270
1.556,-0.260
1.558,-0.250
1.561,-0.250
1.564,-0.235
1.567,-0.235
1.569,-0.245
1.572,-0.250
1.575,-0.255
1.578,-0.255
1.581,-0.265
1.583,-0.270
1.586,-0.265
1.589,-0.260
1.592,-0.260
1.594,-0.245
1.597,-0.250
1.600,-0.240
1.603,-0.245
1.606,-0.255
1.608,-0.245
1.611,-0.250
1.614,-0.265
1.617,-0.270
1.619,-0.265
1.622,-0.270
1.625,-0.260
1.628,-0.260
1.631,-0.245
1.633,-0.255
1.636,-0.250
1.639,-0.250
1.642,-0.260
1.644,-0.270
1.647,-0.275
1.650,-0.275
1.653,-0.280
1.656,-0.270
1.658,-0.270
1.661,-0.260
1.664,-0.260
1.667,-0.255
1.669,-0.250
1.672,-0.265
1.675,-0.270
1.678,-0.270
1.681,-0.275
1.683,-0.285
1.686,-0.295
1.689,-0.290
1.692,-0.285
1.694,-0.275
1.697,-0.270
1.700,-0.260
1.703,-0.260
1.706,-0.275
1.708,-0.275
1.711,-0.280
1.714,-0.295
1.717,-0.285
1.719,-0.295
1.722,-0.290
1.725,-0.290
1.728,-0.280
1.731,-0.275
1.733,-0.270
1.736,-0.270
1.739,-0.290
1.742,-0.280
1.744,-0.300
1.747,-0.305
1.750,-0.310
1.753,-0.310
1.756,-0.310
1.758,-0.305
1.761,-0.295
1.764,-0.290
1.767,-0.280
1.769,-0.285
1.772,-0.295
1.775,-0.290
1.778,-0.300
1.781,-0.290
1.783,-0.315
1.786,-0.310
1.789,-0.305
1.792,-0.290
1.794,-0.290
1.797,-0.285
1.800,-0.280
1.803,-0.270
1.806,-0.285
1.808,-0.280
1.811,-0.295
1.814,-0.285
1.817,-0.300
1.819,-0.280
1.822,-0.275
1.825,-0.275
1.828,-0.260
1.831,-0.265
1.833,-0.255
1.836,-0.245
1.839,-0.245
1.842,-0.250
1.844,-0.245
1.847,-0.265
1.850,-0.265
1.853,-0.265
1.856,-0.255
1.858,-0.250
1.861,-0.235
1.864,-0.245
1.867,-0.240
1.869,-0.225
1.872,-0.240
1.875,-0.245
1.878,-0.245
1.881,-0.255
1.883,-0.260
1.886,-0.260
1.889,-0.255
1.892,-0.245
1.894,-0.240
1.897,-0.240
1.900,-0.225
1.903,-0.225
1.906,-0.240
1.908,-0.245
1.911,-0.255
1.914,-0.250
1.917,-0.260
1.919,-0.260
1.922,-0.255
1.925,-0.245
1.928,-0.250
1.931,-0.240
1.933,-0.245
1.936,-0.235
1.939,-0.255
1.942,-0.250
1.944,-0.255
1.947,-0.270
1.950,-0.270
1.953,-0.270
1.956,-0.270
1.958,-0.250
1.961,-0.255
1.964,-0.240
1.967,-0.240
1.969,-0.240
1.972,-0.250
1.975,-0.260
1.978,-0.265
1.981,-0.265
1.983,-0.270
1.986,-0.280
1.989,-0.280
1.992,-0.260
1.994,-0.265
1.997,-0.260
2.000,-0.260
2.003,-0.250
2.006,-0.255
2.008,-0.260
2.011,-0.265
2.014,-0.275
2.017,-0.275
2.019,-0.285
2.022,-0.275
2.025,-0.275
2.028,-0.260
2.031,-0.260
2.033,-0.260
2.036,-0.260
2.039,-0.250
2.042,-0.255
2.044,-0.270
2.047,-0.270
2.050,-0.280
2.053,-0.285
2.056,-0.285
2.058,-0.275
2.061,-0.275
2.064,-0.260
2.067,-0.255
2.069,-0.255
2.072,-0.260
2.075,-0.260
2.078,-0.265
2.081,-0.285
2.083,-0.285
2.086,-0.280
2.089,-0.280
2.092,-0.280
2.094,-0.275
2.097,-0.255
2.100,-0.265
2.103,-0.260
2.106,-0.275
2.108,-0.280
2.111,-0.275
2.114,-0.285
2.117,-0.280
2.119,-0.265
2.122,-0.250
2.125,-0.250
2.128,-0.235
2.131,-0.225
2.133,-0.210
2.136,-0.200
2.139,-0.200
2.142,-0.215
2.144,-0.225
2.147,-0.240
2.150,-0.255
2.153,-0.260
2.156,-0.275
2.158,-0.285
2.161,-0.275
2.164,-0.265
2.167,-0.270
2.169,-0.245
2.172,-0.250
2.175,-0.255
2.178,-0.250
2.181,-0.270
2.183,-0.280
2.186,-0.275
2.189,-0.270
2.192,-0.265
2.194,-0.260
2.197,-0.250
2.200,-0.260
2.203,-0.260
2.206,-0.275
2.208,-0.280
2.211,-0.300
2.214,-0.310
2.217,-0.310
2.219,-0.310
2.222,-0.310
2.225,-0.305
2.228,-0.290
2.231,-0.300
2.233,-0.290
2.236,-0.295
2.239,-0.295
2.242,-0.305
2.244,-0.305
2.247,-0.320
2.250,-0.325
2.253,-0.325
2.256,-0.325
2.258,-0.310
2.261,-0.305
2.264,-0.295
2.267,-0.295
2.269,-0.280
2.272,-0.290
2.275,-0.300
2.278,-0.305
2.281,-0.310
2.283,-0.320
2.286,-0.315
2.289,-0.320
2.292,-0.310
2.294,-0.295
2.297,-0.300
2.300,-0.290
2.303,-0.295
2.306,-0.295
2.308,-0.295
2.311,-0.305
2.314,-0.295
2.317,-0.290
2.319,-0.280
2.322,-0.270
2.325,-0.280
2.328,-0.305
2.331,-0.335
2.333,-0.390
2.336,-0.465
2.339,-0.550
2.342,-0.645
2.344,-0.715
2.347,-0.760
2.350,-0.775
2.353,-0.755
2.356,-0.685
2.358,-0.610
2.361,-0.515
2.364,-0.440
2.367,-0.370
2.369,-0.315
2.372,-0.295
2.375,-0.315
2.378,-0.325
2.381,-0.355
2.383,-0.385
2.386,-0.385
2.389,-0.385
2.392,-0.350
2.394,-0.315
2.397,-0.275
2.400,-0.230
2.403,-0.225
2.406,-0.240
2.408,-0.255
2.411,-0.260
2.414,-0.265
2.417,-0.265
2.419,-0.275
2.422,-0.270
2.425,-0.265
2.428,-0.260
2.431,-0.255
2.433,-0.260
2.436,-0.235
2.439,-0.255
2.442,-0.260
2.444,-0.255
2.447,-0.275
2.450,-0.285
2.453,-0.275
2.456,-0.275
2.458,-0.265
2.461,-0.250
2.464,-0.255
2.467,-0.250
2.469,-0.250
2.472,-0.255
2.475,-0.265
2.478,-0.275
2.481,-0.285
2.483,-0.285
2.486,-0.290
2.489,-0.285
2.492,-0.270
2.494,-0.280
2.497,-0.275
2.500,-0.265
2.503,-0.260
2.506,-0.265
2.508,-0.275
2.511,-0.285
2.514,-0.280
2.517,-0.295
2.519,-0.300
2.522,-0.290
2.525,-0.290
2.528,-0.275
2.531,-0.280
2.533,-0.270
2.536,-0.275
2.539,-0.285
2.542,-0.290
2.544,-0.285
2.547,-0.285
2.550,-0.290
2.553,-0.305
2.556,-0.305
2.558,-0.295
2.561,-0.280
2.564,-0.290
2.567,-0.285
2.569,-0.265
2.572,-0.265
2.575,-0.275
2.578,-0.290
2.581,-0.290
2.583,-0.300
2.586,-0.300
2.589,-0.295
2.592,-0.300
2.594,-0.280
2.597,-0.275
2.600,-0.275
2.603,-0.265
2.606,-0.270
2.608,-0.285
2.611,-0.300
2.614,-0.300
2.617,-0.300
2.619,-0.320
2.622,-0.310
2.625,-0.295
2.628,-0.295
2.631,-0.280
2.633,-0.285
2.636,-0.280
2.639,-0.280
2.642,-0.290
2.644,-0.300
2.647,-0.305
2.650,-0.305
2.653,-0.300
2.656,-0.305
2.658,-0.315
2.661,-0.300
2.664,-0.305
2.667,-0.295
2.669,-0.285
2.672,-0.295
2.675,-0.300
2.678,-0.315
2.681,-0.320
2.683,-0.315
2.686,-0.325
2.689,-0.315
2.692,-0.310
2.694,-0.315
2.697,-0.300
2.700,-0.300
2.703,-0.300
2.706,-0.305
2.708,-0.305
2.711,-0.325
2.714,-0.320
2.717,-0.330
2.719,-0.330
2.722,-0.330
2.725,-0.325
2.728,-0.320
2.731,-0.300
2.733,-0.300
2.736,-0.290
2.739,-0.305
2.742,-0.290
2.744,-0.305
2.747,-0.300
2.750,-0.305
2.753,-0.315
2.756,-0.305
2.758,-0.290
2.761,-0.280
2.764,-0.285
2.767,-0.265
2.769,-0.260
2.772,-0.270
2.775,-0.275
2.778,-0.285
2.781,-0.295
2.783,-0.295
2.786,-0.290
2.789,-0.295
2.792,-0.275
2.794,-0.270
2.797,-0.265
2.800,-0.270
2.803,-0.270
2.806,-0.270
2.808,-0.285
2.811,-0.285
2.814,-0.300
2.817,-0.305
2.819,-0.310
2.822,-0.290
2.825,-0.285
2.828,-0.280
2.831,-0.270
2.833,-0.265
2.836,-0.270
2.839,-0.275
2.842,-0.285
2.844,-0.285
2.847,-0.290
2.850,-0.305
2.853,-0.290
2.856,-0.290
2.858,-0.285
2.861,-0.280
2.864,-0.285
2.867,-0.265
2.869,-0.280
2.872,-0.290
2.875,-0.285
2.878,-0.290
2.881,-0.310
2.883,-0.310
2.886,-0.310
2.889,-0.300
2.892,-0.295
2.894,-0.300
2.897,-0.290
2.900,-0.285
2.903,-0.285
2.906,-0.290
2.908,-0.305
2.911,-0.315
2.914,-0.305
2.917,-0.320
2.919,-0.325
2.922,-0.305
2.925,-0.310
2.928,-0.295
2.931,-0.295
2.933,-0.280
2.936,-0.295
2.939,-0.310
2.942,-0.310
2.944,-0.315
2.947,-0.330
2.950,-0.330
2.953,-0.315
2.956,-0.315
2.958,-0.305
2.961,-0.300
2.964,-0.300
2.967,-0.285
2.969,-0.300
2.972,-0.305
2.975,-0.315
2.978,-0.320
2.981,-0.325
2.983,-0.315
2.986,-0.330
2.989,-0.315
2.992,-0.325
2.994,-0.325
2.997,-0.305
3.000,-0.290
3.003,-0.300
3.006,-0.310
3.008,-0.315
3.011,-0.320
3.014,-0.330
3.017,-0.335
3.019,-0.325
3.022,-0.330
3.025,-0.310
3.028,-0.315
3.031,-0.305
3.033,-0.290
3.036,-0.310
3.039,-0.305
3.042,-0.315
3.044,-0.325
3.047,-0.340
3.050,-0.330
3.053,-0.330
3.056,-0.325
3.058,-0.315
3.061,-0.315
3.064,-0.300
3.067,-0.305
3.069,-0.315
3.072,-0.320
3.075,-0.320
3.078,-0.330
3.081,-0.330
3.083,-0.335
3.086,-0.330
3.089,-0.335
3.092,-0.335
3.094,-0.315
3.097,-0.315
3.100,-0.300
3.103,-0.320
3.106,-0.315
3.108,-0.320
3.111,-0.325
3.114,-0.330
3.117,-0.335
3.119,-0.320
3.122,-0.305
3.125,-0.285
3.128,-0.280
3.131,-0.275
3.133,-0.255
3.136,-0.255
3.139,-0.255
3.142,-0.265
3.144,-0.265
3.147,-0.280
3.150,-0.300
3.153,-0.300
3.156,-0.295
3.158,-0.305
3.161,-0.295
3.164,-0.310
3.167,-0.310
3.169,-0.310
3.172,-0.310
3.175,-0.315
3.178,-0.315
3.181,-0.320
3.183,-0.335
3.186,-0.325
3.189,-0.315
3.192,-0.310
3.194,-0.310
3.197,-0.290
3.200,-0.295
3.203,-0.300
3.206,-0.305
3.208,-0.315
3.211,-0.330
3.214,-0.340
3.217,-0.350
3.219,-0.345
3.222,-0.340
3.225,-0.325
3.228,-0.335
3.231,-0.325
3.233,-0.320
3.236,-0.330
3.239,-0.325
3.242,-0.345
3.244,-0.350
3.247,-0.345
3.250,-0.360
3.253,-0.355
3.256,-0.350
3.258,-0.340
3.261,-0.330
3.264,-0.325
3.267,-0.320
3.269,-0.325
3.272,-0.340
3.275,-0.340
3.278,-0.340
3.281,-0.340
3.283,-0.350
3.286,-0.350
3.289,-0.345
3.292,-0.330
3.294,-0.330
3.297,-0.315
3.300,-0.310
3.303,-0.315
3.306,-0.320
3.308,-0.330
3.311,-0.340
3.314,-0.340
3.317,-0.320
3.319,-0.315
3.322,-0.300
3.325,-0.275
3.328,-0.270
3.331,-0.265
3.333,-0.290
3.336,-0.365
3.339,-0.420
3.342,-0.510
3.344,-0.610
3.347,-0.710
3.350,-0.770
3.353,-0.815
3.356,-0.810
3.358,-0.765
3.361,-0.705
3.364,-0.615
3.367,-0.530
3.369,-0.460
3.372,-0.415
3.375,-0.375
3.378,-0.380
3.381,-0.380
3.383,-0.400
3.386,-0.415
3.389,-0.425
3.392,-0.415
3.394,-0.385
3.397,-0.350
3.400,-0.305
3.403,-0.275
3.406,-0.255
3.408,-0.245
3.411,-0.265
3.414,-0.280
3.417,-0.285
3.419,-0.285
3.422,-0.280
3.425,-0.265
3.428,-0.255
3.431,-0.255
3.433,-0.260
3.436,-0.260
3.439,-0.255
3.442,-0.265
3.444,-0.270
3.447,-0.290
3.450,-0.280
3.453,-0.275
3.456,-0.265
3.458,-0.270
3.461,-0.265
3.464,-0.260
3.467,-0.250
3.469,-0.260
3.472,-0.265
3.475,-0.280
3.478,-0.280
3.481,-0.285
3.483,-0.280
3.486,-0.295
3.489,-0.280
3.492,-0.280
3.494,-0.250
3.497,-0.255
3.500,-0.245
3.503,-0.265
3.506,-0.270
3.508,-0.275
3.511,-0.280
3.514,-0.285
3.517,-0.300
3.519,-0.290
3.522,-0.280
3.525,-0.270
3.528,-0.270
3.531,-0.265
3.533,-0.255
3.536,-0.260
3.539,-0.265
3.542,-0.280
3.544,-0.275
3.547,-0.295
3.550,-0.290
3.553,-0.285
3.556,-0.285
3.558,-0.295
3.561,-0.280
3.564,-0.270
3.567,-0.260
3.569,-0.265
3.572,-0.285
3.575,-0.275
3.578,-0.290
3.581,-0.295
3.583,-0.305
3.586,-0.300
3.589,-0.285
3.592,-0.275
3.594,-0.270
3.597,-0.270
3.600,-0.265
3.603,-0.275
3.606,-0.280
3.608,-0.290
3.611,-0.295
3.614,-0.295
3.617,-0.305
3.619,-0.305
3.622,-0.305
3.625,-0.280
3.628,-0.280
3.631,-0.260
3.633,-0.270
3.636,-0.270
3.639,-0.270
3.642,-0.280
3.644,-0.285
3.647,-0.305
3.650,-0.300
3.653,-0.300
3.656,-0.295
3.658,-0.285
3.661,-0.275
3.664,-0.275
3.667,-0.270
3.669,-0.270
3.672,-0.270
3.675,-0.290
3.678,-0.300
3.681,-0.300
3.683,-0.305
3.686,-0.305
3.689,-0.295
3.692,-0.285
3.694,-0.300
3.697,-0.285
3.700,-0.280
3.703,-0.280
3.706,-0.300
3.708,-0.295
3.711,-0.300
3.714,-0.315
3.717,-0.325
3.719,-0.320
3.722,-0.310
3.725,-0.315
3.728,-0.295
3.731,-0.285
3.733,-0.275
3.736,-0.295
3.739,-0.290
3.742,-0.295
3.744,-0.300
3.747,-0.315
3.750,-0.305
3.753,-0.300
3.756,-0.285
3.758,-0.290
3.761,-0.280
3.764,-0.275
3.767,-0.255
3.769,-0.265
3.772,-0.260
3.775,-0.265
3.778,-0.275
3.781,-0.285
3.783,-0.285
3.786,-0.280
3.789,-0.270
3.792,-0.270
3.794,-0.255
3.797,-0.260
3.800,-0.245
3.803,-0.250
3.806,-0.265
3.808,-0.275
3.811,-0.265
3.814,-0.265
3.817,-0.270
3.819,-0.270
3.822,-0.265
3.825,-0.255
3.828,-0.260
3.831,-0.250
3.833,-0.245
3.836,-0.255
3.839,-0.250
3.842,-0.265
3.844,-0.265
3.847,-0.265
3.850,-0.260
3.853,-0.275
3.856,-0.270
3.858,-0.255
3.861,-0.255
3.864,-0.245
3.867,-0.255
3.869,-0.245
3.872,-0.250
3.875,-0.260
3.878,-0.265
3.881,-0.275
3.883,-0.275
3.886,-0.280
3.889,-0.260
3.892,-0.260
3.894,-0.265
3.897,-0.245
3.900,-0.245
3.903,-0.250
3.906,-0.260
3.908,-0.270
3.911,-0.275
3.914,-0.280
3.917,-0.280
3.919,-0.285
3.922,-0.285
3.925,-0.275
3.928,-0.265
3.931,-0.265
3.933,-0.260
3.936,-0.265
3.939,-0.270
3.942,-0.270
3.944,-0.280
3.947,-0.285
3.950,-0.295
3.953,-0.295
3.956,-0.280
3.958,-0.285
3.961,-0.285
3.964,-0.280
3.967,-0.270
3.969,-0.270
3.972,-0.285
3.975,-0.280
3.978,-0.285
3.981,-0.290
3.983,-0.290
3.986,-0.300
3.989,-0.290
3.992,-0.280
3.994,-0.280
3.997,-0.270
4.000,-0.260
4.003,-0.265
4.006,-0.285
4.008,-0.280
4.011,-0.285
4.014,-0.300
4.017,-0.300
4.019,-0.300
4.022,-0.295
4.025,-0.290
4.028,-0.285
4.031,-0.280
4.033,-0.270
4.036,-0.280
4.039,-0.295
4.042,-0.295
4.044,-0.290
4.047,-0.300
4.050,-0.305
4.053,-0.305
4.056,-0.295
4.058,-0.300
4.061,-0.290
4.064,-0.275
4.067,-0.265
4.069,-0.275
4.072,-0.285
4.075,-0.295
4.078,-0.290
4.081,-0.300
4.083,-0.300
4.086,-0.295
4.089,-0.305
4.092,-0.290
4.094,-0.275
4.097,-0.280
4.100,-0.270
4.103,-0.270
4.106,-0.270
4.108,-0.285
4.111,-0.290
4.114,-0.295
4.117,-0.295
4.119,-0.300
4.122,-0.295
4.125,-0.290
4.128,-0.280
4.131,-0.280
4.133,-0.270
4.136,-0.275
4.139,-0.270
4.142,-0.290
4.144,-0.305
4.147,-0.290
4.150,-0.305
4.153,-0.305
4.156,-0.305
4.158,-0.295
4.161,-0.285
4.164,-0.290
4.167,-0.270
4.169,-0.285
4.172,-0.285
4.175,-0.290
4.178,-0.290
4.181,-0.295
4.183,-0.305
4.186,-0.305
4.189,-0.280
4.192,-0.285
4.194,-0.275
4.197,-0.275
4.200,-0.265
4.203,-0.275
4.206,-0.285
4.208,-0.290
4.211,-0.295
4.214,-0.290
4.217,-0.300
4.219,-0.305
4.222,-0.290
4.225,-0.285
4.228,-0.275
4.231,-0.265
4.233,-0.260
4.236,-0.270
4.239,-0.270
4.242,-0.280
4.244,-0.285
4.247,-0.290
4.250,-0.290
4.253,-0.285
4.256,-0.295
4.258,-0.275
4.261,-0.265
4.264,-0.265
4.267,-0.255
4.269,-0.265
4.272,-0.270
4.275,-0.265
4.278,-0.275
4.281,-0.280
4.283,-0.295
4.286,-0.280
4.289,-0.265
4.292,-0.255
4.294,-0.245
4.297,-0.235
4.300,-0.220
4.303,-0.215
4.306,-0.205
4.308,-0.205
4.311,-0.210
4.314,-0.215
4.317,-0.220
4.319,-0.225
4.322,-0.230
4.325,-0.235
4.328,-0.235
4.331,-0.255
4.333,-0.255
4.336,-0.260
4.339,-0.255
4.342,-0.260
4.344,-0.265
4.347,-0.255
4.350,-0.265
4.353,-0.270
4.356,-0.270
4.358,-0.260
4.361,-0.255
4.364,-0.250
4.367,-0.235
4.369,-0.230
4.372,-0.260
4.375,-0.255
4.378,-0.265
4.381,-0.285
4.383,-0.290
4.386,-0.290
4.389,-0.280
4.392,-0.285
4.394,-0.275
4.397,-0.270
4.400,-0.265
4.403,-0.260
4.406,-0.270
4.408,-0.275
4.411,-0.280
4.414,-0.280
4.417,-0.295
4.419,-0.295
4.422,-0.285
4.425,-0.285
4.428,-0.270
4.431,-0.260
4.433,-0.260
4.436,-0.255
4.439,-0.280
4.442,-0.285
4.444,-0.290
4.447,-0.285
4.450,-0.300
4.453,-0.290
4.456,-0.285
4.458,-0.270
4.461,-0.270
4.464,-0.265
4.467,-0.255
4.469,-0.260
4.472,-0.260
4.475,-0.265
4.478,-0.270
4.481,-0.260
4.483,-0.245
4.486,-0.235
4.489,-0.230
4.492,-0.240
4.494,-0.250
4.497,-0.285
4.500,-0.335
4.503,-0.405
4.506,-0.495
4.508,-0.585
4.511,-0.675
4.514,-0.735
4.517,-0.760
4.519,-0.735
4.522,-0.660
4.525,-0.565
4.528,-0.465
4.531,-0.355
4.533,-0.290
4.536,-0.250
4.539,-0.270
4.542,-0.295
4.544,-0.345
4.547,-0.355
4.550,-0.340
4.553,-0.305
4.556,-0.260
4.558,-0.215
4.561,-0.190
4.564,-0.180
4.567,-0.190
4.569,-0.205
4.572,-0.190
4.575,-0.200
4.578,-0.220
4.581,-0.215
4.583,-0.220
4.586,-0.215
4.589,-0.210
4.592,-0.210
4.594,-0.195
4.597,-0.195
4.600,-0.185
4.603,-0.195
4.606,-0.200
4.608,-0.200
4.611,-0.200
4.614,-0.215
4.617,-0.220
4.619,-0.225
4.622,-0.215
4.625,-0.210
4.628,-0.195
4.631,-0.190
4.633,-0.190
4.636,-0.190
4.639,-0.200
4.642,-0.200
4.644,-0.210
4.647,-0.225
4.650,-0.205
4.653,-0.215
4.656,-0.210
4.658,-0.205
4.661,-0.205
4.664,-0.200
4.667,-0.195
4.669,-0.200
4.672,-0.205
4.675,-0.210
4.678,-0.220
4.681,-0.230
4.683,-0.225
4.686,-0.230
4.689,-0.230
4.692,-0.220
4.694,-0.215
4.697,-0.200
4.700,-0.210
4.703,-0.215
4.706,-0.215
4.708,-0.225
4.711,-0.220
4.714,-0.235
4.717,-0.230
4.719,-0.245
4.722,-0.230
4.725,-0.230
4.728,-0.220
4.731,-0.215
4.733,-0.200
4.736,-0.210
4.739,-0.220
4.742,-0.230
4.744,-0.225
4.747,-0.250
4.750,-0.240
4.753,-0.240
4.756,-0.235
4.758,-0.230
4.761,-0.235
4.764,-0.225
4.767,-0.210
4.769,-0.220
4.772,-0.230
4.775,-0.225
4.778,-0.240
4.781,-0.240
4.783,-0.250
4.786,-0.245
4.789,-0.245
4.792,-0.240
4.794,-0.225
4.797,-0.225
4.800,-0.220
4.803,-0.215
4.806,-0.230
4.808,-0.240
4.811,-0.240
4.814,-0.255
4.817,-0.260
4.819,-0.265
4.822,-0.250
4.825,-0.250
4.828,-0.245
4.831,-0.240
4.833,-0.235
4.836,-0.240
4.839,-0.240
4.842,-0.245
4.844,-0.250
4.847,-0.260
4.850,-0.260
4.853,-0.270
4.856,-0.260
4.858,-0.255
4.861,-0.240
4.864,-0.240
4.867,-0.230
4.869,-0.240
4.872,-0.255
4.875,-0.240
4.878,-0.260
4.881,-0.260
4.883,-0.265
4.886,-0.265
4.889,-0.255
4.892,-0.245
4.894,-0.245
4.897,-0.230
4.900,-0.220
4.903,-0.220
4.906,-0.225
4.908,-0.225
4.911,-0.230
4.914,-0.235
4.917,-0.235
4.919,-0.230
4.922,-0.215
4.925,-0.220
4.928,-0.210
4.931,-0.195
4.933,-0.180
4.936,-0.190
4.939,-0.200
4.942,-0.200
4.944,-0.200
4.947,-0.205
4.950,-0.210
4.953,-0.210
4.956,-0.220
4.958,-0.205
4.961,-0.195
4.964,-0.190
4.967,-0.185
4.969,-0.180
4.972,-0.190
4.975,-0.190
4.978,-0.210
4.981,-0.210
4.983,-0.220
4.986,-0.210
4.989,-0.200
4.992,-0.205
4.994,-0.195
4.997,-0.185
5.000,-0.195
5.003,-0.180
5.006,-0.190
5.008,-0.200
5.011,-0.200
5.014,-0.210
5.017,-0.220
5.019,-0.215
5.022,-0.200
5.025,-0.210
5.028,-0.190
5.031,-0.195
5.033,-0.185
5.036,-0.195
5.039,-0.200
5.042,-0.195
5.044,-0.195
5.047,-0.205
5.050,-0.220
5.053,-0.215
5.056,-0.225
5.058,-0.205
5.061,-0.205
5.064,-0.200
5.067,-0.185
5.069,-0.190
5.072,-0.195
5.075,-0.200
5.078,-0.215
5.081,-0.220
5.083,-0.225
5.086,-0.225
5.089,-0.220
5.092,-0.225
5.094,-0.210
5.097,-0.205
5.100,-0.200
5.103,-0.190
5.106,-0.210
5.108,-0.205
5.111,-0.210
5.114,-0.220
5.117,-0.220
5.119,-0.230
5.122,-0.225
5.125,-0.220
5.128,-0.210
5.131,-0.215
5.133,-0.200
5.136,-0.215
5.139,-0.190
5.142,-0.200
5.144,-0.220
5.147,-0.220
5.150,-0.235
5.153,-0.240
5.156,-0.220
5.158,-0.220
5.161,-0.210
5.164,-0.195
5.167,-0.200
5.169,-0.205
5.172,-0.210
5.175,-0.215
5.178,-0.225
5.181,-0.225
5.183,-0.225
5.186,-0.240
5.189,-0.230
5.192,-0.220
5.194,-0.205
5.197,-0.210
5.200,-0.210
5.203,-0.195
5.206,-0.200
5.208,-0.215
5.211,-0.220
5.214,-0.230
5.217,-0.235
5.219,-0.230
5.222,-0.225
5.225,-0.220
5.228,-0.215
5.231,-0.210
5.233,-0.195
5.236,-0.200
5.239,-0.200
5.242,-0.210
5.244,-0.215
5.247,-0.225
5.250,-0.215
5.253,-0.220
5.256,-0.215
5.258,-0.200
5.261,-0.185
5.264,-0.170
5.267,-0.155
5.269,-0.155
5.272,-0.170
5.275,-0.165
5.278,-0.165
5.281,-0.155
5.283,-0.170
5.286,-0.175
5.289,-0.160
5.292,-0.175
5.294,-0.185
5.297,-0.185
5.300,-0.200
5.303,-0.185
5.306,-0.205
5.308,-0.205
5.311,-0.210
5.314,-0.210
5.317,-0.210
5.319,-0.215
5.322,-0.215
5.325,-0.210
5.328,-0.210
5.331,-0.195
5.333,-0.195
5.336,-0.180
5.339,-0.200
5.342,-0.215
5.344,-0.220
5.347,-0.225
5.350,-0.235
5.353,-0.235
5.356,-0.250
5.358,-0.250
5.361,-0.235
5.364,-0.220
5.367,-0.230
5.369,-0.225
5.372,-0.225
5.375,-0.225
5.378,-0.235
5.381,-0.240
5.383,-0.245
5.386,-0.255
5.389,-0.240
5.392,-0.240
5.394,-0.225
5.397,-0.215
5.400,-0.215
5.403,-0.210
5.406,-0.220
5.408,-0.225
5.411,-0.220
5.414,-0.245
5.417,-0.245
5.419,-0.235
5.422,-0.225
5.425,-0.230
5.428,-0.230
5.431,-0.220
5.433,-0.215
5.436,-0.215
5.439,-0.220
5.442,-0.210
5.444,-0.220
5.447,-0.210
5.450,-0.205
5.453,-0.200
5.456,-0.200
5.458,-0.220
5.461,-0.255
5.464,-0.295
5.467,-0.360
5.469,-0.425
5.472,-0.525
5.475,-0.595
5.478,-0.635
5.481,-0.650
5.483,-0.615
5.486,-0.555
5.489,-0.475
5.492,-0.390
5.494,-0.310
5.497,-0.245
5.500,-0.190
5.503,-0.170
5.506,-0.185
5.508,-0.210
5.511,-0.245
5.514,-0.260
5.517,-0.275
5.519,-0.270
5.522,-0.235
5.525,-0.220
5.528,-0.180
5.531,-0.155
5.533,-0.155
5.536,-0.155
5.539,-0.165
5.542,-0.170
5.544,-0.180
5.547,-0.185
5.550,-0.200
5.553,-0.200
5.556,-0.190
5.558,-0.185
5.561,-0.180
5.564,-0.180
5.567,-0.170
5.569,-0.175
5.572,-0.180
5.575,-0.180
5.578,-0.190
5.581,-0.195
5.583,-0.195
5.586,-0.210
5.589,-0.195
5.592,-0.190
5.594,-0.195
5.597,-0.195
5.600,-0.180
5.603,-0.175
5.606,-0.185
5.608,-0.185
5.611,-0.200
5.614,-0.200
5.617,-0.200
5.619,-0.210
5.622,-0.210
5.625,-0.200
5.628,-0.195
5.631,-0.190
5.633,-0.190
5.636,-0.185
5.639,-0.195
5.642,-0.195
5.644,-0.200
5.647,-0.220
5.650,-0.220
5.653,-0.215
5.656,-0.210
5.658,-0.215
5.661,-0.210
5.664,-0.205
5.667,-0.195
5.669,-0.200
5.672,-0.210
5.675,-0.205
5.678,-0.215
5.681,-0.220
5.683,-0.225
5.686,-0.220
5.689,-0.220
5.692,-0.220
5.694,-0.225
5.697,-0.205
5.700,-0.200
5.703,-0.195
5.706,-0.210
5.708,-0.210
5.711,-0.215
5.714,-0.225
5.717,-0.235
5.719,-0.230
5.722,-0.230
5.725,-0.225
5.728,-0.220
5.731,-0.215
5.733,-0.210
5.736,-0.210
5.739,-0.220
5.742,-0.230
5.744,-0.225
5.747,-0.240
5.750,-0.245
5.753,-0.235
5.756,-0.230
5.758,-0.235
5.761,-0.225
5.764,-0.220
5.767,-0.220
5.769,-0.215
5.772,-0.230
5.775,-0.230
5.778,-0.235
5.781,-0.250
5.783,-0.250
5.786,-0.250
5.789,-0.250
5.792,-0.235
5.794,-0.240
5.797,-0.235
5.800,-0.230
5.803,-0.230
5.806,-0.240
5.808,-0.240
5.811,-0.240
5.814,-0.260
5.817,-0.255
5.819,-0.265
5.822,-0.250
5.825,-0.250
5.828,-0.245
5.831,-0.240
5.833,-0.240
5.836,-0.230
5.839,-0.245
5.842,-0.240
5.844,-0.235
5.847,-0.245
5.850,-0.250
5.853,-0.260
5.856,-0.240
5.858,-0.235
5.861,-0.230
5.864,-0.215
5.867,-0.210
5.869,-0.220
5.872,-0.210
5.875,-0.220
5.878,-0.215
5.881,-0.220
5.883,-0.225
5.886,-0.230
5.889,-0.205
5.892,-0.215
5.894,-0.205
5.897,-0.195
5.900,-0.205
5.903,-0.195
5.906,-0.190
5.908,-0.200
5.911,-0.210
5.914,-0.210
5.917,-0.210
5.919,-0.225
5.922,-0.205
5.925,-0.215
5.928,-0.205
5.931,-0.200
5.933,-0.185
5.936,-0.175
5.939,-0.185
5.942,-0.200
5.944,-0.210
5.947,-0.215
5.950,-0.220
5.953,-0.215
5.956,-0.210
5.958,-0.205
5.961,-0.205
5.964,-0.195
5.967,-0.200
5.969,-0.190
5.972,-0.205
5.975,-0.205
5.978,-0.205
5.981,-0.215
5.983,-0.220
5.986,-0.225
5.989,-0.220
5.992,-0.215
5.994,-0.210
5.997,-0.210
6.000,-0.210
6.003,-0.210
6.006,-0.210
6.008,-0.210
6.011,-0.215
6.014,-0.225
6.017,-0.235
6.019,-0.235
6.022,-0.220
6.025,-0.210
6.028,-0.220
6.031,-0.220
6.033,-0.205
6.036,-0.200
6.039,-0.220
6.042,-0.210
6.044,-0.225
6.047,-0.225
6.050,-0.240
6.053,-0.235
6.056,-0.245
6.058,-0.240
6.061,-0.230
6.064,-0.225
6.067,-0.220
6.069,-0.195
6.072,-0.215
6.075,-0.220
6.078,-0.225
6.081,-0.240
6.083,-0.235
6.086,-0.245
6.089,-0.245
6.092,-0.235
6.094,-0.235
6.097,-0.230
6.100,-0.230
6.103,-0.215
6.106,-0.230
6.108,-0.230
6.111,-0.235
6.114,-0.245
6.117,-0.245
6.119,-0.255
6.122,-0.255
6.125,-0.250
6.128,-0.235
6.131,-0.245
6.133,-0.230
6.136,-0.215
6.139,-0.235
6.142,-0.235
6.144,-0.240
6.147,-0.250
6.150,-0.255
6.153,-0.255
6.156,-0.265
6.158,-0.260
6.161,-0.240
6.164,-0.245
6.167,-0.230
6.169,-0.225
6.172,-0.230
6.175,-0.245
6.178,-0.250
6.181,-0.255
6.183,-0.255
6.186,-0.265
6.189,-0.265
6.192,-0.255
6.194,-0.255
6.197,-0.245
6.200,-0.235
6.203,-0.240
6.206,-0.245
6.208,-0.240
6.211,-0.240
6.214,-0.255
6.217,-0.255
6.219,-0.265
6.222,-0.245
6.225,-0.230
6.228,-0.220
6.231,-0.215
6.233,-0.200
6.236,-0.195
6.239,-0.180
6.242,-0.180
6.244,-0.180
6.247,-0.195
6.250,-0.200
6.253,-0.220
6.256,-0.225
6.258,-0.235
6.261,-0.240
6.264,-0.235
6.267,-0.240
6.269,-0.230
6.272,-0.240
6.275,-0.235
6.278,-0.220
6.281,-0.245
6.283,-0.240
6.286,-0.260
6.289,-0.245
6.292,-0.245
6.294,-0.245
6.297,-0.230
6.300,-0.225
6.303,-0.225
6.306,-0.220
6.308,-0.240
6.311,-0.235
6.314,-0.245
6.317,-0.275
6.319,-0.275
6.322,-0.265
6.325,-0.275
6.328,-0.270
6.331,-0.255
6.333,-0.255
6.336,-0.250
6.339,-0.260
6.342,-0.265
6.344,-0.265
6.347,-0.275
6.350,-0.275
6.353,-0.290
6.356,-0.275
6.358,-0.285
6.361,-0.260
6.364,-0.260
6.367,-0.260
6.369,-0.240
6.372,-0.255
6.375,-0.260
6.378,-0.260
6.381,-0.280
6.383,-0.275
6.386,-0.280
6.389,-0.275
6.392,-0.270
6.394,-0.265
6.397,-0.260
6.400,-0.255
6.403,-0.245
6.406,-0.245
6.408,-0.245
6.411,-0.265
6.414,-0.260
6.417,-0.265
6.419,-0.250
6.422,-0.235
6.425,-0.225
6.428,-0.210
6.431,-0.220
6.433,-0.255
6.436,-0.285
6.439,-0.350
6.442,-0.435
6.444,-0.515
6.447,-0.620
6.450,-0.695
6.453,-0.730
6.456,-0.740
6.458,-0.690
6.461,-0.625
6.464,-0.530
6.467,-0.445
6.469,-0.350
6.472,-0.320
6.475,-0.285
6.478,-0.300
6.481,-0.320
6.483,-0.355
6.486,-0.365
6.489,-0.360
6.492,-0.330
6.494,-0.285
6.497,-0.240
6.500,-0.205
6.503,-0.180
6.506,-0.175
6.508,-0.185
6.511,-0.195
6.514,-0.210
6.517,-0.220
6.519,-0.225
6.522,-0.210
6.525,-0.220
6.528,-0.195
6.531,-0.195
6.533,-0.195
6.536,-0.185
6.539,-0.190
6.542,-0.190
6.544,-0.200
6.547,-0.200
6.550,-0.215
6.553,-0.220
6.556,-0.220
6.558,-0.195
6.561,-0.195
6.564,-0.195
6.567,-0.190
6.569,-0.175
6.572,-0.185
6.575,-0.200
6.578,-0.200
6.581,-0.210
6.583,-0.215
6.586,-0.220
6.589,-0.205
6.592,-0.215
6.594,-0.210
6.597,-0.200
6.600,-0.195
6.603,-0.185
6.606,-0.205
6.608,-0.200
6.611,-0.200
6.614,-0.210
6.617,-0.215
6.619,-0.220
6.622,-0.240
6.625,-0.210
6.628,-0.210
6.631,-0.195
6.633,-0.195
6.636,-0.195
6.639,-0.195
6.642,-0.205
6.644,-0.200
6.647,-0.225
6.650,-0.225
6.653,-0.225
6.656,-0.220
6.658,-0.225
6.661,-0.215
6.664,-0.200
6.667,-0.200
6.669,-0.195
6.672,-0.205
6.675,-0.200
6.678,-0.215
6.681,-0.215
6.683,-0.225
6.686,-0.230
6.689,-0.225
6.692,-0.215
6.694,-0.215
6.697,-0.205
6.700,-0.200
6.703,-0.190
6.706,-0.195
6.708,-0.205
6.711,-0.215
6.714,-0.220
6.717,-0.225
6.719,-0.235
6.722,-0.225
6.725,-0.225
6.728,-0.225
6.731,-0.215
6.733,-0.210
6.736,-0.205
6.739,-0.205
6.742,-0.205
6.744,-0.210
6.747,-0.220
6.750,-0.235
6.753,-0.220
6.756,-0.230
6.758,-0.225
6.761,-0.215
6.764,-0.210
6.767,-0.220
6.769,-0.190
6.772,-0.210
6.775,-0.210
6.778,-0.225
6.781,-0.235
6.783,-0.230
6.786,-0.235
6.789,-0.230
6.792,-0.235
6.794,-0.230
6.797,-0.210
6.800,-0.205
6.803,-0.205
6.806,-0.210
6.808,-0.210
6.811,-0.230
6.814,-0.230
6.817,-0.235
6.819,-0.235
6.822,-0.230
6.825,-0.230
6.828,-0.230
6.831,-0.225
6.833,-0.220
6.836,-0.200
6.839,-0.220
6.842,-0.220
6.844,-0.230
6.847,-0.235
6.850,-0.235
6.853,-0.245
6.856,-0.230
6.858,-0.220
6.861,-0.210
6.864,-0.205
6.867,-0.200
6.869,-0.185
6.872,-0.205
6.875,-0.200
6.878,-0.200
6.881,-0.205
6.883,-0.215
6.886,-0.215
6.889,-0.210
6.892,-0.210
6.894,-0.195
6.897,-0.190
6.900,-0.185
6.903,-0.185
6.906,-0.190
6.908,-0.175
6.911,-0.195
6.914,-0.205
6.917,-0.205
6.919,-0.225
6.922,-0.200
6.925,-0.205
6.928,-0.195
6.931,-0.185
6.933,-0.185
6.936,-0.175
6.939,-0.185
6.942,-0.190
6.944,-0.195
6.947,-0.190
6.950,-0.200
6.953,-0.205
6.956,-0.190
6.958,-0.190
6.961,-0.190
6.964,-0.180
6.967,-0.180
6.969,-0.180
6.972,-0.185
6.975,-0.185
6.978,-0.190
6.981,-0.195
6.983,-0.200
6.986,-0.210
6.989,-0.200
6.992,-0.210
6.994,-0.195
6.997,-0.195
7.000,-0.195
7.003,-0.170
7.006,-0.180
7.008,-0.195
7.011,-0.190
7.014,-0.205
7.017,-0.200
7.019,-0.205
7.022,-0.205
7.025,-0.195
7.028,-0.195
7.031,-0.195
7.033,-0.185
7.036,-0.180
7.039,-0.180
7.042,-0.185
7.044,-0.200
7.047,-0.220
7.050,-0.220
7.053,-0.220
7.056,-0.205
7.058,-0.220
7.061,-0.205
7.064,-0.190
7.067,-0.190
7.069,-0.190
7.072,-0.195
7.075,-0.195
7.078,-0.200
7.081,-0.215
7.083,-0.215
7.086,-0.225
7.089,-0.225
7.092,-0.225
7.094,-0.215
7.097,-0.205
7.100,-0.200
7.103,-0.195
7.106,-0.205
7.108,-0.200
7.111,-0.205
7.114,-0.215
7.117,-0.220
7.119,-0.230
7.122,-0.225
7.125,-0.220
7.128,-0.215
7.131,-0.215
7.133,-0.195
7.136,-0.200
7.139,-0.200
7.142,-0.195
7.144,-0.205
7.147,-0.215
7.150,-0.215
7.153,-0.230
7.156,-0.225
7.158,-0.210
7.161,-0.205
7.164,-0.205
7.167,-0.205
7.169,-0.205
7.172,-0.200
7.175,-0.205
7.178,-0.220
7.181,-0.225
7.183,-0.230
7.186,-0.235
7.189,-0.225
7.192,-0.235
7.194,-0.215
7.197,-0.205
7.200,-0.195
7.203,-0.190
7.206,-0.205
7.208,-0.210
7.211,-0.200
7.214,-0.215
7.217,-0.225
7.219,-0.220
7.222,-0.220
7.225,-0.225
7.228,-0.210
7.231,-0.215
7.233,-0.215
7.236,-0.205
7.239,-0.205
7.242,-0.200
7.244,-0.210
7.247,-0.220
7.250,-0.220
7.253,-0.230
7.256,-0.215
7.258,-0.225
7.261,-0.210
7.264,-0.190
7.267,-0.180
7.269,-0.170
7.272,-0.170
7.275,-0.170
7.278,-0.165
7.281,-0.160
7.283,-0.165
7.286,-0.160
7.289,-0.155
7.292,-0.155
7.294,-0.145
7.297,-0.155
7.300,-0.160
7.303,-0.165
7.306,-0.185
7.308,-0.195
7.311,-0.215
7.314,-0.210
7.317,-0.220
7.319,-0.220
7.322,-0.205
7.325,-0.210
7.328,-0.200
7.331,-0.185
7.333,-0.180
7.336,-0.185
7.339,-0.185
7.342,-0.185
7.344,-0.205
7.347,-0.200
7.350,-0.215
7.353,-0.225
7.356,-0.230
7.358,-0.210
7.361,-0.220
7.364,-0.225
7.367,-0.205
7.369,-0.210
7.372,-0.215
7.375,-0.220
7.378,-0.235
7.381,-0.230
7.383,-0.225
7.386,-0.240
7.389,-0.235
7.392,-0.235
7.394,-0.230
7.397,-0.225
7.400,-0.225
7.403,-0.225
7.406,-0.220
7.408,-0.215
7.411,-0.230
7.414,-0.225
7.417,-0.240
7.419,-0.240
7.422,-0.235
7.425,-0.230
7.428,-0.235
7.431,-0.220
7.433,-0.200
7.436,-0.210
7.439,-0.210
7.442,-0.215
7.444,-0.225
7.447,-0.220
7.450,-0.220
7.453,-0.225
7.456,-0.200
7.458,-0.200
7.461,-0.185
7.464,-0.165
7.467,-0.185
7.469,-0.215
7.472,-0.275
7.475,-0.350
7.478,-0.450
7.481,-0.560
7.483,-0.660
7.486,-0.710
7.489,-0.715
7.492,-0.680
7.494,-0.610
7.497,-0.510
7.500,-0.410
7.503,-0.315
7.506,-0.260
7.508,-0.225
7.511,-0.230
7.514,-0.260
7.517,-0.295
7.519,-0.325
7.522,-0.315
7.525,-0.285
7.528,-0.245
7.531,-0.205
7.533,-0.160
7.536,-0.130
7.539,-0.130
7.542,-0.145
7.544,-0.145
7.547,-0.160
7.550,-0.180
7.553,-0.185
7.556,-0.175
7.558,-0.160
7.561,-0.160
7.564,-0.150
7.567,-0.140
7.569,-0.150
7.572,-0.145
7.575,-0.145
7.578,-0.160
7.581,-0.170
7.583,-0.170
7.586,-0.175
7.589,-0.185
7.592,-0.175
7.594,-0.155
7.597,-0.160
7.600,-0.145
7.603,-0.150
7.606,-0.155
7.608,-0.160
7.611,-0.160
7.614,-0.165
7.617,-0.175
7.619,-0.185
7.622,-0.185
7.625,-0.175
7.628,-0.175
7.631,-0.165
7.633,-0.165
7.636,-0.140
7.639,-0.160
7.642,-0.160
7.644,-0.165
7.647,-0.175
7.650,-0.185
7.653,-0.175
7.656,-0.185
7.658,-0.185
7.661,-0.180
7.664,-0.165
7.667,-0.160
7.669,-0.160
7.672,-0.170
7.675,-0.170
7.678,-0.175
7.681,-0.185
7.683,-0.190
7.686,-0.195
7.689,-0.185
7.692,-0.185
7.694,-0.185
7.697,-0.175
7.700,-0.170
7.703,-0.165
7.706,-0.170
7.708,-0.175
7.711,-0.180
7.714,-0.190
7.717,-0.190
7.719,-0.200
7.722,-0.190
7.725,-0.185
7.728,-0.185
7.731,-0.185
7.733,-0.180
7.736,-0.165
7.739,-0.170
7.742,-0.180
7.744,-0.180
7.747,-0.180
7.750,-0.195
7.753,-0.200
7.756,-0.205
7.758,-0.195
7.761,-0.185
7.764,-0.185
7.767,-0.180
7.769,-0.165
7.772,-0.170
7.775,-0.180
7.778,-0.190
7.781,-0.195
7.783,-0.200
7.786,-0.200
7.789,-0.205
7.792,-0.195
7.794,-0.195
7.797,-0.195
7.800,-0.185
7.803,-0.190
7.806,-0.180
7.808,-0.195
7.811,-0.190
7.814,-0.205
7.817,-0.190
7.819,-0.205
7.822,-0.210
7.825,-0.205
7.828,-0.210
7.831,-0.195
7.833,-0.200
7.836,-0.195
7.839,-0.200
7.842,-0.200
7.844,-0.195
7.847,-0.215
7.850,-0.225
7.853,-0.220
7.856,-0.220
7.858,-0.215
7.861,-0.210
7.864,-0.200
7.867,-0.195
7.869,-0.185
7.872,-0.195
7.875,-0.190
7.878,-0.205
7.881,-0.210
7.883,-0.210
7.886,-0.205
7.889,-0.195
7.892,-0.185
7.894,-0.185
7.897,-0.165
7.900,-0.155
7.903,-0.160
7.906,-0.160
7.908,-0.180
7.911,-0.170
7.914,-0.170
7.917,-0.185
7.919,-0.175
7.922,-0.190
7.925,-0.175
7.928,-0.180
7.931,-0.180
7.933,-0.170
7.936,-0.165
7.939,-0.165
7.942,-0.170
7.944,-0.170
7.947,-0.180
7.950,-0.190
7.953,-0.185
7.956,-0.185
7.958,-0.185
7.961,-0.170
7.964,-0.165
7.967,-0.160
7.969,-0.150
7.972,-0.150
7.975,-0.170
7.978,-0.170
7.981,-0.180
7.983,-0.190
7.986,-0.185
7.989,-0.190
7.992,-0.185
7.994,-0.170
7.997,-0.160
8.000,-0.155
8.003,-0.155
8.006,-0.160
8.008,-0.165
8.011,-0.170
8.014,-0.180
8.017,-0.185
8.019,-0.195
8.022,-0.185
8.025,-0.200
8.028,-0.175
8.031,-0.170
8.033,-0.170
8.036,-0.160
8.039,-0.170
8.042,-0.170
8.044,-0.170
8.047,-0.175
8.050,-0.190
8.053,-0.205
8.056,-0.195
8.058,-0.200
8.061,-0.180
8.064,-0.185
8.067,-0.180
8.069,-0.185
8.072,-0.180
8.075,-0.175
8.078,-0.190
8.081,-0.200
8.083,-0.195
8.086,-0.205
8.089,-0.205
8.092,-0.200
8.094,-0.195
8.097,-0.195
8.100,-0.195
8.103,-0.185
8.106,-0.185
8.108,-0.185
8.111,-0.195
8.114,-0.200
8.117,-0.215
8.119,-0.215
8.122,-0.215
8.125,-0.205
8.128,-0.205
8.131,-0.190
8.133,-0.185
8.136,-0.185
8.139,-0.180
8.142,-0.195
8.144,-0.200
8.147,-0.205
8.150,-0.215
8.153,-0.215
8.156,-0.215
8.158,-0.200
8.161,-0.205
8.164,-0.195
8.167,-0.185
8.169,-0.185
8.172,-0.180
8.175,-0.200
8.178,-0.200
8.181,-0.210
8.183,-0.210
8.186,-0.210
8.189,-0.215
8.192,-0.200
8.194,-0.200
8.197,-0.195
8.200,-0.210
8.203,-0.185
8.206,-0.200
8.208,-0.190
8.211,-0.190
8.214,-0.205
8.217,-0.215
8.219,-0.220
8.222,-0.215
8.225,-0.205
8.228,-0.205
8.231,-0.205
8.233,-0.205
8.236,-0.195
8.239,-0.200
8.242,-0.200
8.244,-0.195
8.247,-0.205
8.250,-0.220
8.253,-0.215
8.256,-0.225
8.258,-0.210
8.261,-0.210
8.264,-0.205
8.267,-0.200
8.269,-0.180
8.272,-0.195
8.275,-0.195
8.278,-0.200
8.281,-0.215
8.283,-0.215
8.286,-0.210
8.289,-0.205
8.292,-0.195
8.294,-0.185
8.297,-0.155
8.300,-0.145
8.303,-0.135
8.306,-0.130
8.308,-0.130
8.311,-0.140
8.314,-0.135
8.317,-0.145
8.319,-0.155
8.322,-0.180
8.325,-0.185
8.328,-0.195
8.331,-0.195
8.333,-0.200
8.336,-0.205
8.339,-0.200
8.342,-0.195
8.344,-0.190
8.347,-0.190
8.350,-0.190
8.353,-0.200
8.356,-0.195
8.358,-0.205
8.361,-0.185
8.364,-0.185
8.367,-0.185
8.369,-0.185
8.372,-0.190
8.375,-0.195
8.378,-0.210
8.381,-0.215
8.383,-0.215
8.386,-0.230
8.389,-0.235
8.392,-0.230
8.394,-0.220
8.397,-0.225
8.400,-0.225
8.403,-0.210
8.406,-0.215
8.408,-0.215
8.411,-0.220
8.414,-0.225
8.417,-0.235
8.419,-0.245
8.422,-0.240
8.425,-0.225
8.428,-0.230
8.431,-0.220
8.433,-0.210
8.436,-0.200
8.439,-0.200
8.442,-0.220
8.444,-0.215
8.447,-0.225
8.450,-0.230
8.453,-0.230
8.456,-0.230
8.458,-0.230
8.461,-0.215
8.464,-0.210
8.467,-0.195
8.469,-0.195
8.472,-0.170
8.475,-0.175
8.478,-0.155
8.481,-0.170
8.483,-0.180
8.486,-0.210
8.489,-0.265
8.492,-0.335
8.494,-0.430
8.497,-0.530
8.500,-0.615
8.503,-0.665
8.506,-0.675
8.508,-0.665
8.511,-0.610
8.514,-0.520
8.517,-0.430
8.519,-0.335
8.522,-0.270
8.525,-0.235
8.528,-0.200
8.531,-0.220
8.533,-0.235
8.536,-0.255
8.539,-0.270
8.542,-0.275
8.544,-0.245
8.547,-0.215
8.550,-0.175
8.553,-0.160
8.556,-0.155
8.558,-0.135
8.561,-0.145
8.564,-0.150
8.567,-0.140
8.569,-0.150
8.572,-0.140
8.575,-0.145
8.578,-0.140
8.581,-0.150
8.583,-0.150
8.586,-0.160
8.589,-0.155
8.592,-0.150
8.594,-0.155
8.597,-0.145
8.600,-0.140
8.603,-0.135
8.606,-0.135
8.608,-0.140
8.611,-0.135
8.614,-0.150
8.617,-0.155
8.619,-0.160
8.622,-0.160
8.625,-0.155
8.628,-0.150
8.631,-0.145
8.633,-0.140
8.636,-0.135
8.639,-0.130
8.642,-0.145
8.644,-0.160
8.647,-0.160
8.650,-0.155
8.653,-0.170
8.656,-0.160
8.658,-0.165
8.661,-0.155
8.664,-0.155
8.667,-0.150
8.669,-0.130
8.672,-0.140
8.675,-0.135
8.678,-0.145
8.681,-0.155
8.683,-0.155
8.686,-0.170
8.689,-0.175
8.692,-0.165
8.694,-0.155
8.697,-0.160
8.700,-0.150
8.703,-0.145
8.706,-0.135
8.708,-0.150
8.711,-0.155
8.714,-0.170
8.717,-0.170
8.719,-0.175
8.722,-0.180
8.725,-0.170
8.728,-0.165
8.731,-0.160
8.733,-0.150
8.736,-0.155
8.739,-0.140
8.742,-0.165
8.744,-0.165
8.747,-0.170
8.750,-0.175
8.753,-0.175
8.756,-0.180
8.758,-0.180
8.761,-0.170
8.764,-0.160
8.767,-0.155
8.769,-0.155
8.772,-0.145
8.775,-0.155
8.778,-0.165
8.781,-0.170
8.783,-0.180
8.786,-0.180
8.789,-0.165
8.792,-0.170
8.794,-0.165
8.797,-0.160
8.800,-0.150
8.803,-0.160
8.806,-0.170
8.808,-0.170
8.811,-0.165
8.814,-0.185
8.817,-0.175
8.819,-0.190
8.822,-0.185
8.825,-0.190
8.828,-0.190
8.831,-0.180
8.833,-0.175
8.836,-0.170
8.839,-0.175
8.842,-0.180
8.844,-0.180
8.847,-0.190
8.850,-0.185
8.853,-0.200
8.856,-0.195
8.858,-0.190
8.861,-0.190
8.864,-0.190
8.867,-0.185
8.869,-0.170
8.872,-0.175
8.875,-0.180
8.878,-0.190
8.881,-0.195
8.883,-0.205
8.886,-0.200
8.889,-0.210
8.892,-0.195
8.894,-0.195
8.897,-0.175
8.900,-0.150
8.903,-0.150
8.906,-0.150
8.908,-0.155
8.911,-0.155
8.914,-0.165
8.917,-0.165
8.919,-0.165
8.922,-0.170
8.925,-0.165
8.928,-0.155
8.931,-0.145
8.933,-0.140
8.936,-0.130
8.939,-0.140
8.942,-0.140
8.944,-0.135
8.947,-0.140
8.950,-0.155
8.953,-0.165
8.956,-0.155
8.958,-0.150
8.961,-0.160
8.964,-0.130
8.967,-0.140
8.969,-0.130
8.972,-0.125
8.975,-0.135
8.978,-0.125
8.981,-0.145
8.983,-0.145
8.986,-0.155
8.989,-0.155
8.992,-0.145
8.994,-0.140
8.997,-0.125
9.000,-0.135
9.003,-0.130
9.006,-0.125
9.008,-0.125
9.011,-0.130
9.014,-0.150
9.017,-0.160
9.019,-0.150
9.022,-0.160
9.025,-0.145
9.028,-0.150
9.031,-0.140
9.033,-0.140
9.036,-0.145
9.039,-0.120
9.042,-0.135
9.044,-0.150
9.047,-0.150
9.050,-0.160
9.053,-0.150
9.056,-0.160
9.058,-0.165
9.061,-0.150
9.064,-0.145
9.067,-0.145
9.069,-0.135
9.072,-0.140
9.075,-0.150
9.078,-0.145
9.081,-0.160
9.083,-0.165
9.086,-0.175
9.089,-0.180
9.092,-0.165
9.094,-0.160
9.097,-0.160
9.100,-0.145
9.103,-0.150
9.106,-0.140
9.108,-0.160
9.111,-0.150
9.114,-0.155
9.117,-0.175
9.119,-0.180
9.122,-0.175
9.125,-0.170
9.128,-0.170
9.131,-0.165
9.133,-0.155
9.136,-0.145
9.139,-0.155
9.142,-0.155
9.144,-0.155
9.147,-0.165
9.150,-0.185
9.153,-0.190
9.156,-0.190
9.158,-0.185
9.161,-0.180
9.164,-0.170
9.167,-0.170
9.169,-0.150
9.172,-0.155
9.175,-0.165
9.178,-0.180
9.181,-0.175
9.183,-0.185
9.186,-0.185
9.189,-0.185
9.192,-0.170
9.194,-0.180
9.197,-0.165
9.200,-0.165
9.203,-0.165
9.206,-0.150
9.208,-0.155
9.211,-0.155
9.214,-0.170
9.217,-0.175
9.219,-0.175
9.222,-0.170
9.225,-0.155
9.228,-0.145
9.231,-0.125
9.233,-0.110
9.236,-0.110
9.239,-0.100
9.242,-0.100
9.244,-0.105
9.247,-0.110
9.250,-0.120
9.253,-0.150
9.256,-0.160
9.258,-0.170
9.261,-0.170
9.264,-0.175
9.267,-0.180
9.269,-0.165
9.272,-0.135
9.275,-0.140
9.278,-0.150
9.281,-0.145
9.283,-0.155
9.286,-0.170
9.289,-0.170
9.292,-0.165
9.294,-0.175
9.297,-0.160
9.300,-0.155
9.303,-0.155
9.306,-0.160
9.308,-0.165
9.311,-0.165
9.314,-0.185
9.317,-0.185
9.319,-0.200
9.322,-0.190
9.325,-0.190
9.328,-0.190
9.331,-0.190
9.333,-0.175
9.336,-0.185
9.339,-0.170
9.342,-0.185
9.344,-0.175
9.347,-0.195
9.350,-0.200
9.353,-0.200
9.356,-0.205
9.358,-0.195
9.361,-0.185
9.364,-0.180
9.367,-0.180
9.369,-0.180
9.372,-0.160
9.375,-0.185
9.378,-0.175
9.381,-0.180
9.383,-0.190
9.386,-0.195
9.389,-0.195
9.392,-0.195
9.394,-0.180
9.397,-0.180
9.400,-0.180
9.403,-0.170
9.406,-0.175
9.408,-0.180
9.411,-0.165
9.414,-0.175
9.417,-0.170
9.419,-0.170
9.422,-0.155
9.425,-0.150
9.428,-0.165
9.431,-0.180
9.433,-0.225
9.436,-0.270
9.439,-0.345
9.442,-0.435
9.444,-0.530
9.447,-0.605
9.450,-0.635
9.453,-0.620
9.456,-0.570
9.458,-0.485
9.461,-0.400
9.464,-0.300
9.467,-0.215
9.469,-0.175
9.472,-0.140
9.475,-0.140
9.478,-0.150
9.481,-0.185
9.483,-0.205
9.486,-0.225
9.489,-0.245
9.492,-0.235
9.494,-0.225
9.497,-0.175
9.500,-0.155
9.503,-0.120
9.506,-0.110
9.508,-0.125
9.511,-0.125
9.514,-0.145
9.517,-0.155
9.519,-0.155
9.522,-0.160
9.525,-0.155
9.528,-0.155
9.531,-0.145
9.533,-0.135
9.536,-0.140
9.539,-0.130
9.542,-0.140
9.544,-0.145
9.547,-0.145
9.550,-0.160
9.553,-0.160
9.556,-0.170
9.558,-0.170
9.561,-0.155
9.564,-0.155
9.567,-0.150
9.569,-0.150
9.572,-0.135
9.575,-0.140
9.578,-0.150
9.581,-0.155
9.583,-0.160
9.586,-0.155
9.589,-0.175
9.592,-0.160
9.594,-0.165
9.597,-0.160
9.600,-0.150
9.603,-0.150
9.606,-0.150
9.608,-0.150
9.611,-0.160
9.614,-0.160
9.617,-0.165
9.619,-0.180
9.622,-0.180
9.625,-0.175
9.628,-0.180
9.631,-0.165
9.633,-0.160
9.636,-0.155
9.639,-0.165
9.642,-0.155
9.644,-0.165
9.647,-0.170
9.650,-0.170
9.653,-0.180
9.656,-0.190
9.658,-0.180
9.661,-0.185
9.664,-0.170
9.667,-0.170
9.669,-0.145
9.672,-0.150
9.675,-0.165
9.678,-0.170
9.681,-0.175
9.683,-0.180
9.686,-0.185
9.689,-0.190
9.692,-0.175
9.694,-0.175
9.697,-0.165
9.700,-0.170
9.703,-0.165
9.706,-0.160
9.708,-0.165
9.711,-0.165
9.714,-0.175
9.717,-0.185
9.719,-0.190
9.722,-0.195
9.725,-0.185
9.728,-0.190
9.731,-0.175
9.733,-0.175
9.736,-0.160
9.739,-0.165
9.742,-0.170
9.744,-0.175
9.747,-0.180
9.750,-0.190
9.753,-0.205
9.756,-0.205
9.758,-0.200
9.761,-0.195
9.764,-0.185
9.767,-0.180
9.769,-0.185
9.772,-0.175
9.775,-0.185
9.778,-0.195
9.781,-0.205
9.783,-0.195
9.786,-0.210
9.789,-0.220
9.792,-0.210
9.794,-0.210
9.797,-0.200
9.800,-0.200
9.803,-0.195
9.806,-0.200
9.808,-0.195
9.811,-0.205
9.814,-0.220
9.817,-0.215
9.819,-0.215
9.822,-0.220
9.825,-0.220
9.828,-0.205
9.831,-0.200
9.833,-0.200
9.836,-0.180
9.839,-0.175
9.842,-0.185
9.844,-0.195
9.847,-0.180
9.850,-0.175
9.853,-0.190
9.856,-0.180
9.858,-0.180
9.861,-0.170
9.864,-0.160
9.867,-0.150
9.869,-0.150
9.872,-0.135
9.875,-0.150
9.878,-0.145
9.881,-0.155
9.883,-0.155
9.886,-0.160
9.889,-0.175
9.892,-0.165
9.894,-0.155
9.897,-0.150
9.900,-0.140
9.903,-0.145
9.906,-0.145
9.908,-0.135
9.911,-0.140
9.914,-0.145
9.917,-0.155
9.919,-0.165
9.922,-0.165
9.925,-0.145
9.928,-0.150
9.931,-0.150
9.933,-0.145
9.936,-0.135
9.939,-0.130
9.942,-0.145
9.944,-0.135
9.947,-0.150
9.950,-0.150
9.953,-0.165
9.956,-0.165
9.958,-0.170
9.961,-0.155
9.964,-0.155
9.967,-0.150
9.969,-0.135
9.972,-0.140
9.975,-0.145
9.978,-0.145
9.981,-0.160
9.983,-0.170
9.986,-0.170
9.989,-0.175
9.992,-0.170
9.994,-0.170
9.997,-0.165
10.000,-0.160
10.003,-0.165
10.006,-0.160
10.008,-0.155
10.011,-0.170
10.014,-0.165
10.017,-0.165
10.019,-0.185
10.022,-0.195
10.025,-0.190
10.028,-0.180
10.031,-0.175
10.033,-0.170
10.036,-0.160
10.039,-0.155
10.042,-0.170
10.044,-0.180
10.047,-0.180
10.050,-0.190
10.053,-0.210
10.056,-0.195
10.058,-0.195
10.061,-0.200
10.064,-0.175
10.067,-0.180
10.069,-0.160
10.072,-0.165
10.075,-0.170
10.078,-0.180
10.081,-0.190
10.083,-0.185
10.086,-0.200
10.089,-0.195
10.092,-0.185
10.094,-0.185
10.097,-0.190
10.100,-0.190
10.103,-0.170
10.106,-0.170
10.108,-0.185
10.111,-0.170
10.114,-0.185
10.117,-0.200
10.119,-0.200
10.122,-0.200
10.125,-0.185
10.128,-0.180
10.131,-0.170
10.133,-0.165
10.136,-0.160
10.139,-0.145
10.142,-0.145
10.144,-0.140
10.147,-0.155
10.150,-0.155
10.153,-0.140
10.156,-0.145
10.158,-0.140
10.161,-0.130
10.164,-0.130
10.167,-0.135
10.169,-0.140
10.172,-0.145
10.175,-0.170
10.178,-0.180
10.181,-0.190
10.183,-0.195
10.186,-0.195
10.189,-0.195
10.192,-0.195
10.194,-0.175
10.197,-0.185
10.200,-0.170
10.203,-0.165
10.206,-0.160
10.208,-0.165
10.211,-0.165
10.214,-0.190
10.217,-0.200
10.219,-0.205
10.222,-0.215
10.225,-0.215
10.228,-0.205
10.231,-0.215
10.233,-0.205
10.236,-0.200
10.239,-0.185
10.242,-0.200
10.244,-0.225
10.247,-0.225
10.250,-0.215
10.253,-0.225
10.256,-0.230
10.258,-0.235
10.261,-0.225
10.264,-0.215
10.267,-0.225
10.269,-0.210
10.272,-0.195
10.275,-0.215
10.278,-0.210
10.281,-0.215
10.283,-0.225
10.286,-0.225
10.289,-0.230
10.292,-0.225
10.294,-0.210
10.297,-0.210
10.300,-0.215
10.303,-0.200
10.306,-0.205
10.308,-0.210
10.311,-0.190
10.314,-0.210
10.317,-0.220
10.319,-0.220
10.322,-0.220
10.325,-0.215
10.328,-0.220
10.331,-0.200
10.333,-0.190
10.336,-0.175
10.339,-0.150
10.342,-0.155
10.344,-0.165
10.347,-0.180
10.350,-0.225
10.353,-0.280
10.356,-0.330
10.358,-0.400
10.361,-0.465
10.364,-0.540
10.367,-0.600
10.369,-0.655
10.372,-0.670
10.375,-0.655
10.378,-0.615
10.381,-0.545
10.383,-0.470
10.386,-0.390
10.389,-0.330
10.392,-0.275
10.394,-0.255
10.397,-0.240
10.400,-0.250
10.403,-0.260
10.406,-0.280
10.408,-0.295
10.411,-0.270
10.414,-0.250
10.417,-0.210
10.419,-0.185
10.422,-0.165
10.425,-0.170
10.428,-0.165
10.431,-0.155
10.433,-0.155
10.436,-0.160
10.439,-0.150
10.442,-0.170
10.444,-0.150
10.447,-0.160
10.450,-0.165
10.453,-0.180
10.456,-0.190
10.458,-0.185
10.461,-0.175
10.464,-0.160
10.467,-0.160
10.469,-0.160
10.472,-0.145
10.475,-0.165
10.478,-0.165
10.481,-0.175
10.483,-0.170
10.486,-0.180
10.489,-0.180
10.492,-0.180
10.494,-0.185
10.497,-0.180
10.500,-0.160
10.503,-0.160
10.506,-0.155
10.508,-0.170
10.511,-0.165
10.514,-0.170
10.517,-0.170
10.519,-0.190
10.522,-0.200
10.525,-0.200
10.528,-0.195
10.531,-0.185
10.533,-0.170
10.536,-0.170
10.539,-0.165
10.542,-0.165
10.544,-0.180
10.547,-0.180
10.550,-0.180
10.553,-0.185
10.556,-0.190
10.558,-0.190
10.561,-0.195
10.564,-0.190
10.567,-0.175
10.569,-0.170
10.572,-0.160
10.575,-0.170
10.578,-0.180
10.581,-0.185
10.583,-0.180
10.586,-0.195
10.589,-0.195
10.592,-0.205
10.594,-0.180
10.597,-0.195
10.600,-0.180
10.603,-0.180
10.606,-0.175
10.608,-0.175
10.611,-0.185
10.614,-0.185
10.617,-0.200
10.619,-0.190
10.622,-0.205
10.625,-0.200
10.628,-0.210
10.631,-0.200
10.633,-0.180
10.636,-0.185
10.639,-0.175
10.642,-0.190
10.644,-0.180
10.647,-0.195
10.650,-0.190
10.653,-0.200
10.656,-0.205
10.658,-0.205
10.661,-0.210
10.664,-0.190
10.667,-0.185
10.669,-0.180
10.672,-0.170
10.675,-0.170
10.678,-0.185
10.681,-0.195
10.683,-0.205
10.686,-0.205
10.689,-0.200
10.692,-0.210
10.694,-0.205
10.697,-0.210
10.700,-0.200
10.703,-0.195
10.706,-0.180
10.708,-0.190
10.711,-0.190
10.714,-0.205
10.717,-0.215
10.719,-0.210
10.722,-0.225
10.725,-0.220
10.728,-0.215
10.731,-0.210
10.733,-0.200
10.736,-0.200
10.739,-0.190
10.742,-0.205
10.744,-0.195
10.747,-0.205
10.750,-0.210
10.753,-0.225
10.756,-0.230
10.758,-0.215
10.761,-0.200
10.764,-0.195
10.767,-0.195
10.769,-0.190
10.772,-0.185
10.775,-0.185
10.778,-0.190
10.781,-0.185
10.783,-0.200
10.786,-0.195
10.789,-0.200
10.792,-0.200
10.794,-0.190
10.797,-0.185
10.800,-0.165
10.803,-0.160
10.806,-0.165
10.808,-0.165
10.811,-0.175
10.814,-0.185
10.817,-0.185
10.819,-0.195
10.822,-0.190
10.825,-0.190
10.828,-0.175
10.831,-0.185
10.833,-0.170
10.836,-0.170
10.839,-0.145
10.842,-0.160
10.844,-0.165
10.847,-0.175
10.850,-0.180
10.853,-0.195
10.856,-0.190
10.858,-0.190
10.861,-0.180
10.864,-0.175
10.867,-0.180
10.869,-0.160
10.872,-0.155
10.875,-0.170
10.878,-0.160
10.881,-0.165
10.883,-0.185
10.886,-0.190
10.889,-0.200
10.892,-0.200
10.894,-0.180
10.897,-0.180
10.900,-0.180
10.903,-0.170
10.906,-0.175
10.908,-0.170
10.911,-0.175
10.914,-0.185
10.917,-0.185
10.919,-0.190
10.922,-0.195
10.925,-0.200
10.928,-0.195
10.931,-0.185
10.933,-0.170
10.936,-0.170
10.939,-0.175
10.942,-0.180
10.944,-0.180
10.947,-0.180
10.950,-0.190
10.953,-0.190
10.956,-0.195
10.958,-0.200
10.961,-0.200
10.964,-0.195
10.967,-0.190
10.969,-0.175
10.972,-0.175
10.975,-0.190
10.978,-0.190
10.981,-0.190
10.983,-0.200
10.986,-0.210
10.989,-0.210
10.992,-0.205
10.994,-0.205
10.997,-0.200
11.000,-0.180
11.003,-0.185
11.006,-0.175
11.008,-0.190
11.011,-0.185
11.014,-0.200
11.017,-0.205
11.019,-0.210
11.022,-0.220
11.025,-0.215
11.028,-0.210
11.031,-0.205
11.033,-0.200
11.036,-0.190
11.039,-0.180
11.042,-0.205
11.044,-0.190
11.047,-0.210
11.050,-0.195
11.053,-0.205
11.056,-0.215
11.058,-0.220
11.061,-0.210
11.064,-0.195
11.067,-0.200
11.069,-0.195
11.072,-0.195
11.075,-0.195
11.078,-0.205
11.081,-0.200
11.083,-0.205
11.086,-0.220
11.089,-0.220
11.092,-0.215
11.094,-0.225
11.097,-0.200
11.100,-0.195
11.103,-0.200
11.106,-0.190
11.108,-0.195
11.111,-0.195
11.114,-0.200
11.117,-0.200
11.119,-0.220
11.122,-0.220
11.125,-0.215
11.128,-0.210
11.131,-0.200
11.133,-0.200
11.136,-0.185
11.139,-0.185
11.142,-0.185
11.144,-0.190
11.147,-0.190
11.150,-0.205
11.153,-0.215
11.156,-0.225
11.158,-0.210
11.161,-0.200
11.164,-0.195
11.167,-0.190
11.169,-0.175
11.172,-0.175
11.175,-0.180
11.178,-0.165
11.181,-0.160
11.183,-0.170
11.186,-0.175
11.189,-0.155
11.192,-0.160
11.194,-0.150
11.197,-0.130
11.200,-0.120
11.203,-0.120
11.206,-0.105
11.208,-0.125
11.211,-0.135
11.214,-0.155
11.217,-0.180
11.219,-0.205
11.222,-0.205
11.225,-0.205
11.228,-0.200
11.231,-0.180
11.233,-0.175
11.236,-0.160
11.239,-0.165
11.242,-0.160
11.244,-0.170
11.247,-0.180
11.250,-0.190
11.253,-0.190
11.256,-0.180
11.258,-0.195
11.261,-0.195
11.264,-0.190
11.267,-0.175
11.269,-0.180
11.272,-0.180
11.275,-0.185
11.278,-0.195
11.281,-0.205
11.283,-0.205
11.286,-0.215
11.289,-0.225
11.292,-0.215
11.294,-0.215
11.297,-0.205
11.300,-0.190
11.303,-0.185
11.306,-0.195
11.308,-0.185
11.311,-0.185
11.314,-0.200
11.317,-0.195
11.319,-0.205
11.322,-0.220
11.325,-0.210
11.328,-0.205
11.331,-0.195
11.333,-0.200
11.336,-0.200
11.339,-0.180
11.342,-0.175
11.344,-0.190
11.347,-0.200
11.350,-0.205
11.353,-0.205
11.356,-0.215
11.358,-0.205
11.361,-0.200
11.364,-0.190
11.367,-0.175
11.369,-0.185
11.372,-0.175
11.375,-0.175
11.378,-0.175
11.381,-0.155
11.383,-0.150
11.386,-0.145
11.389,-0.145
11.392,-0.155
11.394,-0.165
11.397,-0.190
11.400,-0.240
11.403,-0.290
11.406,-0.350
11.408,-0.445
11.411,-0.525
11.414,-0.615
11.417,-0.665
11.419,-0.680
11.422,-0.670
11.425,-0.595
11.428,-0.515
11.431,-0.405
11.433,-0.320
11.436,-0.250
11.439,-0.200
11.442,-0.210
11.444,-0.215
11.447,-0.250
11.450,-0.275
11.453,-0.285
11.456,-0.260
11.458,-0.225
11.461,-0.170
11.464,-0.140
11.467,-0.110
11.469,-0.100
11.472,-0.100
11.475,-0.100
11.478,-0.120
11.481,-0.130
11.483,-0.135
11.486,-0.130
11.489,-0.135
11.492,-0.130
11.494,-0.130
11.497,-0.115
11.500,-0.120
11.503,-0.115
11.506,-0.100
11.508,-0.110
11.511,-0.120
11.514,-0.115
11.517,-0.130
11.519,-0.125
11.522,-0.140
11.525,-0.125
11.528,-0.125
11.531,-0.125
11.533,-0.110
11.536,-0.115
11.539,-0.110
11.542,-0.115
11.544,-0.125
11.547,-0.120
11.550,-0.130
11.553,-0.130
11.556,-0.140
11.558,-0.135
11.561,-0.125
11.564,-0.130
11.567,-0.110
11.569,-0.115
11.572,-0.110
11.575,-0.105
11.578,-0.120
11.581,-0.120
11.583,-0.130
11.586,-0.135
11.589,-0.130
11.592,-0.130
11.594,-0.135
11.597,-0.125
11.600,-0.125
11.603,-0.105
11.606,-0.115
11.608,-0.100
11.611,-0.110
11.614,-0.120
11.617,-0.130
11.619,-0.135
11.622,-0.145
11.625,-0.130
11.628,-0.130
11.631,-0.130
11.633,-0.125
11.636,-0.120
11.639,-0.125
11.642,-0.105
11.644,-0.110
11.647,-0.115
11.650,-0.135
11.653,-0.130
11.656,-0.155
11.658,-0.145
11.661,-0.150
11.664,-0.125
11.667,-0.130
11.669,-0.110
11.672,-0.110
11.675,-0.130
11.678,-0.130
11.681,-0.130
11.683,-0.140
11.686,-0.140
11.689,-0.145
11.692,-0.145
11.694,-0.145
11.697,-0.135
11.700,-0.120
11.703,-0.130
11.706,-0.110
11.708,-0.115
11.711,-0.115
11.714,-0.125
11.717,-0.135
11.719,-0.140
11.722,-0.140
11.725,-0.150
11.728,-0.145
11.731,-0.145
11.733,-0.135
11.736,-0.125
11.739,-0.115
11.742,-0.110
11.744,-0.125
11.747,-0.135
11.750,-0.140
11.753,-0.145
11.756,-0.150
11.758,-0.155
11.761,-0.150
11.764,-0.145
11.767,-0.135
11.769,-0.135
11.772,-0.130
11.775,-0.145
11.778,-0.140
11.781,-0.140
11.783,-0.155
11.786,-0.155
11.789,-0.160
11.792,-0.160
11.794,-0.150
11.797,-0.140
11.800,-0.140
11.803,-0.130
11.806,-0.115
11.808,-0.115
11.811,-0.125
11.814,-0.135
11.817,-0.125
11.819,-0.135
11.822,-0.140
11.825,-0.130
11.828,-0.130
11.831,-0.125
11.833,-0.125
11.836,-0.120
11.839,-0.100
11.842,-0.105
11.844,-0.110
11.847,-0.115
11.850,-0.110
11.853,-0.125
11.856,-0.120
11.858,-0.125
11.861,-0.120
11.864,-0.100
11.867,-0.110
11.869,-0.100
11.872,-0.095
11.875,-0.100
11.878,-0.090
11.881,-0.100
11.883,-0.125
11.886,-0.120
11.889,-0.110
11.892,-0.125
11.894,-0.115
11.897,-0.105
11.900,-0.095
11.903,-0.100
11.906,-0.090
11.908,-0.090
11.911,-0.100
11.914,-0.090
11.917,-0.100
11.919,-0.120
11.922,-0.115
11.925,-0.120
11.928,-0.105
11.931,-0.110
11.933,-0.100
11.936,-0.110
11.939,-0.090
11.942,-0.105
11.944,-0.100
11.947,-0.105
11.950,-0.100
11.953,-0.130
11.956,-0.115
11.958,-0.120
11.961,-0.115
11.964,-0.115
11.967,-0.100
11.969,-0.095
11.972,-0.090
11.975,-0.100
11.978,-0.110
11.981,-0.100
11.983,-0.115
11.986,-0.135
11.989,-0.125
11.992,-0.130
11.994,-0.120
11.997,-0.120
12.000,-0.115
12.003,-0.115
12.006,-0.110
12.008,-0.115
12.011,-0.120
12.014,-0.120
12.017,-0.125
12.019,-0.135
12.022,-0.135
12.025,-0.150
12.028,-0.130
12.031,-0.135
12.033,-0.135
12.036,-0.115
12.039,-0.115
12.042,-0.115
12.044,-0.120
12.047,-0.120
12.050,-0.140
12.053,-0.140
12.056,-0.140
12.058,-0.155
12.061,-0.145
12.064,-0.130
12.067,-0.125
12.069,-0.120
12.072,-0.110
12.075,-0.120
12.078,-0.115
12.081,-0.125
12.083,-0.125
12.086,-0.130
12.089,-0.145
12.092,-0.135
12.094,-0.140
12.097,-0.130
12.100,-0.135
12.103,-0.125
12.106,-0.120
12.108,-0.110
12.111,-0.125
12.114,-0.125
12.117,-0.140
12.119,-0.150
12.122,-0.135
12.125,-0.150
12.128,-0.130
12.131,-0.125
12.133,-0.120
12.136,-0.130
12.139,-0.120
12.142,-0.125
12.144,-0.130
12.147,-0.120
12.150,-0.140
12.153,-0.135
12.156,-0.145
12.158,-0.140
12.161,-0.140
12.164,-0.135
12.167,-0.125
12.169,-0.125
12.172,-0.115
12.175,-0.120
12.178,-0.110
12.181,-0.130
12.183,-0.135
12.186,-0.145
12.189,-0.145
12.192,-0.130
12.194,-0.135
12.197,-0.140
12.200,-0.125
12.203,-0.115
12.206,-0.110
12.208,-0.105
12.211,-0.125
12.214,-0.125
12.217,-0.120
12.219,-0.145
12.222,-0.125
12.225,-0.125
12.228,-0.120
12.231,-0.105
12.233,-0.100
12.236,-0.070
12.239,-0.075
12.242,-0.055
12.244,-0.055
12.247,-0.060
12.250,-0.065
12.253,-0.075
12.256,-0.070
12.258,-0.090
12.261,-0.090
12.264,-0.100
12.267,-0.105
12.269,-0.110
12.272,-0.115
12.275,-0.115
12.278,-0.115
12.281,-0.115
12.283,-0.125
12.286,-0.120
12.289,-0.120
12.292,-0.120
12.294,-0.125
12.297,-0.110
12.300,-0.105
12.303,-0.105
12.306,-0.095
12.308,-0.100
12.311,-0.115
12.314,-0.115
12.317,-0.125
12.319,-0.135
12.322,-0.155
12.325,-0.160
12.328,-0.155
12.331,-0.150
12.333,-0.135
12.336,-0.140
12.339,-0.130
12.342,-0.130
12.344,-0.130
12.347,-0.135
12.350,-0.155
12.353,-0.155
12.356,-0.150
12.358,-0.155
12.361,-0.145
12.364,-0.140
12.367,-0.140
12.369,-0.130
12.372,-0.115
12.375,-0.120
12.378,-0.125
12.381,-0.125
12.383,-0.140
12.386,-0.145
12.389,-0.150
12.392,-0.150
12.394,-0.135
12.397,-0.135
12.400,-0.140
12.403,-0.120
12.406,-0.120
12.408,-0.120
12.411,-0.130
12.414,-0.130
12.417,-0.130
12.419,-0.140
12.422,-0.140
12.425,-0.135
12.428,-0.120
12.431,-0.095
12.433,-0.090
12.436,-0.085
12.439,-0.095
12.442,-0.135
12.444,-0.210
12.447,-0.305
12.450,-0.410
12.453,-0.515
12.456,-0.585
12.458,-0.620
12.461,-0.590
12.464,-0.535
12.467,-0.430
12.469,-0.320
12.472,-0.230
12.475,-0.170
12.478,-0.135
12.481,-0.120
12.483,-0.135
12.486,-0.160
12.489,-0.200
12.492,-0.220
12.494,-0.200
12.497,-0.175
12.500,-0.130
12.503,-0.090
12.506,-0.055
12.508,-0.050
12.511,-0.050
12.514,-0.065
12.517,-0.075
12.519,-0.085
12.522,-0.090
12.525,-0.095
12.528,-0.095
12.531,-0.090
12.533,-0.080
12.536,-0.065
12.539,-0.065
12.542,-0.060
12.544,-0.065
12.547,-0.075
12.550,-0.075
12.553,-0.085
12.556,-0.095
12.558,-0.090
12.561,-0.090
12.564,-0.095
12.567,-0.070
12.569,-0.075
12.572,-0.070
12.575,-0.080
12.578,-0.075
12.581,-0.075
12.583,-0.090
12.586,-0.080
12.589,-0.100
12.592,-0.100
12.594,-0.095
12.597,-0.085
12.600,-0.075
12.603,-0.080
12.606,-0.070
12.608,-0.080
12.611,-0.080
12.614,-0.080
12.617,-0.080
12.619,-0.100
12.622,-0.105
12.625,-0.105
12.628,-0.105
12.631,-0.095
12.633,-0.090
12.636,-0.090
12.639,-0.085
12.642,-0.080
12.644,-0.095
12.647,-0.095
12.650,-0.090
12.653,-0.100
12.656,-0.110
12.658,-0.110
12.661,-0.105
12.664,-0.110
12.667,-0.095
12.669,-0.105
12.672,-0.080
12.675,-0.085
12.678,-0.095
12.681,-0.100
12.683,-0.095
12.686,-0.115
12.689,-0.110
12.692,-0.110
12.694,-0.115
12.697,-0.105
12.700,-0.110
12.703,-0.105
12.706,-0.095
12.708,-0.090
12.711,-0.110
12.714,-0.105
12.717,-0.115
12.719,-0.125
12.722,-0.130
12.725,-0.120
12.728,-0.120
12.731,-0.115
12.733,-0.115
12.736,-0.115
12.739,-0.110
12.742,-0.090
12.744,-0.110
12.747,-0.105
12.750,-0.125
12.753,-0.120
12.756,-0.135
12.758,-0.135
12.761,-0.130
12.764,-0.120
12.767,-0.130
12.769,-0.125
12.772,-0.125
12.775,-0.115
12.778,-0.125
12.781,-0.120
12.783,-0.130
12.786,-0.135
12.789,-0.150
12.792,-0.145
12.794,-0.135
12.797,-0.135
12.800,-0.140
12.803,-0.135
12.806,-0.130
12.808,-0.120
12.811,-0.120
12.814,-0.125
12.817,-0.140
12.819,-0.150
12.822,-0.150
12.825,-0.150
12.828,-0.145
12.831,-0.135
12.833,-0.135
12.836,-0.125
12.839,-0.115
12.842,-0.110
12.844,-0.115
12.847,-0.110
12.850,-0.115
12.853,-0.120
12.856,-0.120
12.858,-0.125
12.861,-0.110
12.864,-0.110
12.867,-0.100
12.869,-0.100
12.872,-0.100
12.875,-0.075
12.878,-0.085
12.881,-0.085
12.883,-0.095
12.886,-0.100
12.889,-0.110
12.892,-0.110
12.894,-0.105
12.897,-0.110
12.900,-0.095
12.903,-0.095
12.906,-0.080
12.908,-0.085
12.911,-0.080
12.914,-0.085
12.917,-0.095
12.919,-0.095
12.922,-0.105
12.925,-0.105
12.928,-0.110
12.931,-0.100
12.933,-0.085
12.936,-0.085
12.939,-0.085
12.942,-0.080
12.944,-0.085
12.947,-0.095
12.950,-0.105
12.953,-0.120
12.956,-0.120
12.958,-0.115
12.961,-0.105
12.964,-0.105
12.967,-0.110
12.969,-0.095
12.972,-0.090
12.975,-0.085
12.978,-0.095
12.981,-0.095
12.983,-0.110
12.986,-0.110
12.989,-0.110
12.992,-0.115
12.994,-0.115
12.997,-0.110
13.000,-0.100
13.003,-0.105
13.006,-0.090
13.008,-0.090
13.011,-0.105
13.014,-0.105
13.017,-0.115
13.019,-0.115
13.022,-0.125
13.025,-0.125
13.028,-0.120
13.031,-0.125
13.033,-0.110
13.036,-0.095
13.039,-0.100
13.042,-0.100
13.044,-0.105
13.047,-0.105
13.050,-0.120
13.053,-0.125
13.056,-0.135
13.058,-0.140
13.061,-0.120
13.064,-0.120
13.067,-0.125
13.069,-0.115
13.072,-0.105
13.075,-0.100
13.078,-0.120
13.081,-0.110
13.083,-0.130
13.086,-0.130
13.089,-0.135
13.092,-0.150
13.094,-0.135
13.097,-0.135
13.100,-0.120
13.103,-0.125
13.106,-0.125
13.108,-0.090
13.111,-0.120
13.114,-0.120
13.117,-0.135
13.119,-0.135
13.122,-0.135
13.125,-0.135
13.128,-0.135
13.131,-0.130
13.133,-0.125
13.136,-0.120
13.139,-0.115
13.142,-0.120
13.144,-0.120
13.147,-0.125
13.150,-0.120
13.153,-0.140
13.156,-0.130
13.158,-0.135
13.161,-0.125
13.164,-0.110
13.167,-0.095
13.169,-0.090
13.172,-0.070
13.175,-0.065
13.178,-0.070
13.181,-0.070
13.183,-0.080
13.186,-0.095
13.189,-0.115
13.192,-0.115
13.194,-0.120
13.197,-0.140
13.200,-0.140
13.203,-0.115
13.206,-0.125
13.208,-0.105
13.211,-0.115
13.214,-0.115
13.217,-0.115
13.219,-0.120
13.222,-0.140
13.225,-0.130
13.228,-0.120
13.231,-0.120
13.233,-0.105
13.236,-0.110
13.239,-0.110
13.242,-0.115
13.244,-0.120
13.247,-0.135
13.250,-0.145
13.253,-0.160
13.256,-0.160
13.258,-0.175
13.261,-0.165
13.264,-0.160
13.267,-0.145
13.269,-0.140
13.272,-0.145
13.275,-0.130
13.278,-0.145
13.281,-0.145
13.283,-0.150
13.286,-0.150
13.289,-0.165
13.292,-0.170
13.294,-0.160
13.297,-0.160
13.300,-0.150
13.303,-0.145
13.306,-0.150
13.308,-0.140
13.311,-0.145
13.314,-0.145
13.317,-0.165
13.319,-0.170
13.322,-0.165
13.325,-0.165
13.328,-0.155
13.331,-0.170
13.333,-0.145
13.336,-0.150
13.339,-0.135
13.342,-0.125
13.344,-0.140
13.347,-0.135
13.350,-0.140
13.353,-0.135
13.356,-0.140
13.358,-0.125
13.361,-0.110
13.364,-0.135
13.367,-0.165
13.369,-0.205
13.372,-0.275
13.375,-0.340
13.378,-0.440
13.381,-0.525
13.383,-0.575
13.386,-0.610
13.389,-0.605
13.392,-0.555
13.394,-0.470
13.397,-0.365
13.400,-0.285
13.403,-0.205
13.406,-0.160
13.408,-0.115
13.411,-0.130
13.414,-0.140
13.417,-0.170
13.419,-0.195
13.422,-0.225
13.425,-0.230
13.428,-0.200
13.431,-0.180
13.433,-0.145
13.436,-0.100
13.439,-0.100
13.442,-0.090
13.444,-0.100
13.447,-0.110
13.450,-0.120
13.453,-0.125
13.456,-0.130
13.458,-0.145
13.461,-0.135
13.464,-0.130
13.467,-0.130
13.469,-0.120
13.472,-0.120
13.475,-0.110
13.478,-0.120
13.481,-0.125
13.483,-0.125
13.486,-0.140
13.489,-0.140
13.492,-0.155
13.494,-0.130
13.497,-0.130
13.500,-0.125
13.503,-0.120
13.506,-0.125
13.508,-0.115
13.511,-0.125
13.514,-0.130
13.517,-0.140
13.519,-0.145
13.522,-0.155
13.525,-0.150
13.528,-0.155
13.531,-0.145
13.533,-0.140
13.536,-0.135
13.539,-0.130
13.542,-0.135
13.544,-0.150
13.547,-0.140
13.550,-0.155
13.553,-0.160
13.556,-0.160
13.558,-0.170
13.561,-0.170
13.564,-0.160
13.567,-0.145
13.569,-0.155
13.572,-0.140
13.575,-0.145
13.578,-0.140
13.581,-0.155
13.583,-0.155
13.586,-0.155
13.589,-0.170
13.592,-0.175
13.594,-0.170
13.597,-0.160
13.600,-0.165
13.603,-0.155
13.606,-0.145
13.608,-0.150
13.611,-0.160
13.614,-0.160
13.617,-0.165
13.619,-0.180
13.622,-0.165
13.625,-0.180
13.628,-0.175
13.631,-0.175
13.633,-0.160
13.636,-0.160
13.639,-0.160
13.642,-0.150
13.644,-0.160
13.647,-0.165
13.650,-0.165
13.653,-0.175
13.656,-0.185
13.658,-0.185
13.661,-0.180
13.664,-0.175
13.667,-0.180
13.669,-0.175
13.672,-0.170
13.675,-0.155
13.678,-0.180
13.681,-0.175
13.683,-0.180
13.686,-0.195
13.689,-0.195
13.692,-0.200
13.694,-0.195
13.697,-0.190
13.700,-0.195
13.703,-0.190
13.706,-0.175
13.708,-0.170
13.711,-0.185
13.714,-0.180
13.717,-0.195
13.719,-0.205
13.722,-0.210
13.725,-0.210
13.728,-0.215
13.731,-0.215
13.733,-0.210
13.736,-0.200
13.739,-0.190
13.742,-0.180
13.744,-0.190
13.747,-0.205
13.750,-0.205
13.753,-0.220
13.756,-0.235
13.758,-0.230
13.761,-0.225
13.764,-0.215
13.767,-0.215
13.769,-0.195
13.772,-0.195
13.775,-0.195
13.778,-0.185
13.781,-0.205
13.783,-0.185
13.786,-0.210
13.789,-0.205
13.792,-0.215
13.794,-0.210
13.797,-0.200
13.800,-0.180
13.803,-0.190
13.806,-0.170
13.808,-0.175
13.811,-0.180
13.814,-0.175
13.817,-0.185
13.819,-0.185
13.822,-0.185
13.825,-0.185
13.828,-0.195
13.831,-0.185
13.833,-0.190
13.836,-0.185
13.839,-0.180
13.842,-0.170
13.844,-0.170
13.847,-0.175
13.850,-0.185
13.853,-0.195
13.856,-0.190
13.858,-0.200
13.861,-0.185
13.864,-0.185
13.867,-0.175
13.869,-0.170
13.872,-0.180
13.875,-0.170
13.878,-0.180
13.881,-0.170
13.883,-0.190
13.886,-0.195
13.889,-0.195
13.892,-0.200
13.894,-0.195
13.897,-0.200
13.900,-0.190
13.903,-0.180
13.906,-0.175
13.908,-0.160
13.911,-0.180
13.914,-0.180
13.917,-0.185
13.919,-0.195
13.922,-0.200
13.925,-0.210
13.928,-0.200
13.931,-0.200
13.933,-0.200
13.936,-0.195
13.939,-0.195
13.942,-0.185
13.944,-0.180
13.947,-0.195
13.950,-0.200
13.953,-0.210
13.956,-0.215
13.958,-0.225
13.961,-0.210
13.964,-0.215
13.967,-0.205
13.969,-0.215
13.972,-0.190
13.975,-0.195
13.978,-0.200
13.981,-0.200
13.983,-0.220
13.986,-0.220
13.989,-0.230
13.992,-0.230
13.994,-0.220
13.997,-0.225
14.000,-0.215
14.003,-0.205
14.006,-0.205
14.008,-0.205
14.011,-0.210
14.014,-0.205
14.017,-0.215
14.019,-0.225
14.022,-0.240
14.025,-0.235
14.028,-0.240
14.031,-0.235
14.033,-0.230
14.036,-0.220
14.039,-0.215
14.042,-0.215
14.044,-0.220
14.047,-0.225
14.050,-0.240
14.053,-0.240
14.056,-0.240
14.058,-0.250
14.061,-0.240
14.064,-0.240
14.067,-0.235
14.069,-0.220
14.072,-0.215
14.075,-0.210
14.078,-0.215
14.081,-0.215
14.083,-0.230
14.086,-0.235
14.089,-0.260
14.092,-0.250
14.094,-0.250
14.097,-0.245
14.100,-0.240
14.103,-0.225
14.106,-0.230
14.108,-0.225
14.111,-0.235
14.114,-0.225
14.117,-0.230
14.119,-0.245
14.122,-0.255
14.125,-0.265
14.128,-0.250
14.131,-0.255
14.133,-0.240
14.136,-0.225
14.139,-0.210
14.142,-0.210
14.144,-0.220
14.147,-0.210
14.150,-0.205
14.153,-0.200
14.156,-0.205
14.158,-0.200
14.161,-0.185
14.164,-0.200
14.167,-0.180
14.169,-0.170
14.172,-0.180
14.175,-0.180
14.178,-0.200
14.181,-0.225
14.183,-0.240
14.186,-0.250
14.189,-0.265
14.192,-0.255
14.194,-0.250
14.197,-0.235
14.200,-0.225
14.203,-0.225
14.206,-0.230
14.208,-0.215
14.211,-0.230
14.214,-0.225
14.217,-0.235
14.219,-0.230
14.222,-0.245
14.225,-0.250
14.228,-0.245
14.231,-0.255
14.233,-0.260
14.236,-0.240
14.239,-0.245
14.242,-0.260
14.244,-0.255
14.247,-0.265
14.250,-0.270
14.253,-0.270
14.256,-0.285
14.258,-0.290
14.261,-0.280
14.264,-0.285
14.267,-0.270
14.269,-0.270
14.272,-0.260
14.275,-0.260
14.278,-0.265
14.281,-0.265
14.283,-0.275
14.286,-0.270
14.289,-0.285
14.292,-0.300
14.294,-0.290
14.297,-0.285
14.300,-0.275
14.303,-0.260
14.306,-0.270
14.308,-0.250
14.311,-0.260
14.314,-0.260
14.317,-0.265
14.319,-0.280
14.322,-0.280
14.325,-0.280
14.328,-0.275
14.331,-0.270
14.333,-0.265
14.336,-0.260
14.339,-0.240
14.342,-0.215
14.344,-0.205
14.347,-0.220
14.350,-0.220
14.353,-0.250
14.356,-0.275
14.358,-0.315
14.361,-0.355
14.364,-0.430
14.367,-0.495
14.369,-0.565
14.372,-0.650
14.375,-0.715
14.378,-0.755
14.381,-0.735
14.383,-0.685
14.386,-0.640
14.389,-0.545
14.392,-0.470
14.394,-0.400
14.397,-0.340
14.400,-0.305
14.403,-0.310
14.406,-0.310
14.408,-0.320
14.411,-0.340
14.414,-0.340
14.417,-0.320
14.419,-0.290
14.422,-0.265
14.425,-0.235
14.428,-0.210
14.431,-0.215
14.433,-0.205
14.436,-0.200
14.439,-0.210
14.442,-0.205
14.444,-0.200
14.447,-0.210
14.450,-0.205
14.453,-0.210
14.456,-0.230
14.458,-0.230
14.461,-0.235
14.464,-0.220
14.467,-0.210
14.469,-0.210
14.472,-0.200
14.475,-0.205
14.478,-0.205
14.481,-0.210
14.483,-0.210
14.486,-0.210
14.489,-0.235
14.492,-0.245
14.494,-0.235
14.497,-0.225
14.500,-0.220
14.503,-0.220
14.506,-0.200
14.508,-0.200
14.511,-0.210
14.514,-0.210
14.517,-0.225
14.519,-0.225
14.522,-0.240
14.525,-0.240
14.528,-0.250
14.531,-0.225
14.533,-0.220
14.536,-0.220
14.539,-0.205
14.542,-0.210
14.544,-0.205
14.547,-0.230
14.550,-0.225
14.553,-0.240
14.556,-0.240
14.558,-0.245
14.561,-0.250
14.564,-0.245
14.567,-0.220
14.569,-0.225
14.572,-0.220
14.575,-0.215
14.578,-0.205
14.581,-0.225
14.583,-0.235
14.586,-0.230
14.589,-0.245
14.592,-0.240
14.594,-0.250
14.597,-0.245
14.600,-0.240
14.603,-0.225
14.606,-0.220
14.608,-0.215
14.611,-0.225
14.614,-0.215
14.617,-0.225
14.619,-0.240
14.622,-0.250
14.625,-0.250
14.628,-0.245
14.631,-0.240
14.633,-0.235
14.636,-0.230
14.639,-0.220
14.642,-0.210
14.644,-0.225
14.647,-0.230
14.650,-0.225
14.653,-0.230
14.656,-0.250
14.658,-0.245
14.661,-0.245
14.664,-0.240
14.667,-0.235
14.669,-0.230
14.672,-0.235
14.675,-0.220
14.678,-0.230
14.681,-0.235
14.683,-0.245
14.686,-0.255
14.689,-0.255
14.692,-0.265
14.694,-0.255
14.697,-0.250
14.700,-0.245
14.703,-0.245
14.706,-0.235
14.708,-0.235
14.711,-0.230
14.714,-0.235
14.717,-0.255
14.719,-0.255
14.722,-0.260
14.725,-0.265
14.728,-0.265
14.731,-0.270
14.733,-0.260
14.736,-0.250
14.739,-0.250
14.742,-0.240
14.744,-0.250
14.747,-0.250
14.750,-0.260
14.753,-0.265
14.756,-0.275
14.758,-0.270
14.761,-0.270
14.764,-0.270
14.767,-0.260
14.769,-0.255
14.772,-0.250
14.775,-0.230
14.778,-0.225
14.781,-0.230
14.783,-0.245
14.786,-0.255
14.789,-0.250
14.792,-0.255
14.794,-0.255
14.797,-0.250
14.800,-0.245
14.803,-0.230
14.806,-0.215
14.808,-0.230
14.811,-0.215
14.814,-0.225
14.817,-0.230
14.819,-0.240
14.822,-0.240
14.825,-0.255
14.828,-0.245
14.831,-0.235
14.833,-0.225
14.836,-0.225
14.839,-0.225
14.842,-0.210
14.844,-0.220
14.847,-0.215
14.850,-0.235
14.853,-0.235
14.856,-0.230
14.858,-0.240
14.861,-0.245
14.864,-0.240
14.867,-0.225
14.869,-0.220
14.872,-0.215
14.875,-0.220
14.878,-0.215
14.881,-0.220
14.883,-0.220
14.886,-0.240
14.889,-0.230
14.892,-0.235
14.894,-0.240
14.897,-0.240
14.900,-0.240
14.903,-0.230
14.906,-0.225
14.908,-0.225
14.911,-0.220
14.914,-0.230
14.917,-0.240
14.919,-0.250
14.922,-0.245
14.925,-0.265
14.928,-0.260
14.931,-0.255
14.933,-0.255
14.936,-0.245
14.939,-0.240
14.942,-0.240
14.944,-0.240
14.947,-0.250
14.950,-0.255
14.953,-0.265
14.956,-0.270
14.958,-0.265
14.961,-0.275
14.964,-0.265
14.967,-0.265
14.969,-0.265
14.972,-0.240
14.975,-0.235
14.978,-0.245
14.981,-0.255
14.983,-0.245
14.986,-0.265
14.989,-0.275
14.992,-0.280
14.994,-0.280
14.997,-0.270
15.000,-0.260
15.003,-0.260
15.006,-0.255
15.008,-0.250
15.011,-0.255
15.014,-0.265
15.017,-0.265
15.019,-0.270
15.022,-0.285
15.025,-0.285
15.028,-0.285
15.031,-0.265
15.033,-0.265
15.036,-0.265
15.039,-0.265
15.042,-0.250
15.044,-0.260
15.047,-0.260
15.050,-0.265
15.053,-0.275
15.056,-0.280
15.058,-0.285
15.061,-0.275
15.064,-0.265
15.067,-0.270
15.069,-0.265
15.072,-0.260
15.075,-0.255
15.078,-0.245
15.081,-0.255
15.083,-0.260
15.086,-0.270
15.089,-0.260
15.092,-0.255
15.094,-0.260
15.097,-0.225
15.100,-0.215
15.103,-0.190
15.106,-0.195
15.108,-0.180
15.111,-0.190
15.114,-0.190
15.117,-0.200
15.119,-0.215
15.122,-0.235
15.125,-0.260
15.128,-0.265
15.131,-0.270
15.133,-0.275
15.136,-0.255
15.139,-0.245
15.142,-0.240
15.144,-0.225
15.147,-0.245
15.150,-0.250
15.153,-0.255
15.156,-0.265
15.158,-0.260
15.161,-0.265
15.164,-0.245
15.167,-0.245
15.169,-0.245
15.172,-0.250
15.175,-0.245
15.178,-0.235
15.181,-0.255
15.183,-0.265
15.186,-0.265
15.189,-0.290
15.192,-0.285
15.194,-0.300
15.197,-0.280
15.200,-0.290
15.203,-0.280
15.206,-0.270
15.208,-0.260
15.211,-0.275
15.214,-0.275
15.217,-0.280
15.219,-0.295
15.222,-0.290
15.225,-0.295
15.228,-0.285
15.231,-0.285
15.233,-0.280
15.236,-0.275
15.239,-0.270
15.242,-0.255
15.244,-0.265
15.247,-0.270
15.250,-0.265
15.253,-0.285
15.256,-0.290
15.258,-0.300
15.261,-0.295
15.264,-0.280
15.267,-0.275
15.269,-0.270
15.272,-0.275
15.275,-0.270
15.278,-0.265
15.281,-0.270
15.283,-0.280
15.286,-0.270
15.289,-0.270
15.292,-0.270
15.294,-0.255
15.297,-0.230
15.300,-0.235
15.303,-0.245
15.306,-0.290
15.308,-0.345
15.311,-0.435
15.314,-0.540
15.317,-0.640
15.319,-0.730
15.322,-0.785
15.325,-0.785
15.328,-0.755
15.331,-0.670
15.333,-0.570
15.336,-0.470
15.339,-0.380
15.342,-0.325
15.344,-0.295
15.347,-0.305
15.350,-0.325
15.353,-0.345
15.356,-0.375
15.358,-0.375
15.361,-0.355
15.364,-0.310
15.367,-0.270
15.369,-0.230
15.372,-0.200
15.375,-0.190
15.378,-0.180
15.381,-0.205
15.383,-0.215
15.386,-0.210
15.389,-0.230
15.392,-0.230
15.394,-0.225
15.397,-0.215
15.400,-0.215
15.403,-0.225
15.406,-0.205
15.408,-0.210
15.411,-0.215
15.414,-0.210
15.417,-0.220
15.419,-0.225
15.422,-0.230
15.425,-0.235
15.428,-0.240
15.431,-0.220
15.433,-0.215
15.436,-0.230
15.439,-0.210
15.442,-0.210
15.444,-0.200
15.447,-0.210
15.450,-0.225
15.453,-0.225
15.456,-0.240
15.458,-0.225
15.461,-0.245
15.464,-0.225
15.467,-0.225
15.469,-0.215
15.472,-0.220
15.475,-0.215
15.478,-0.210
15.481,-0.220
15.483,-0.220
15.486,-0.225
15.489,-0.235
15.492,-0.240
15.494,-0.245
15.497,-0.230
15.500,-0.230
15.503,-0.235
15.506,-0.225
15.508,-0.220
15.511,-0.225
15.514,-0.225
15.517,-0.230
15.519,-0.240
15.522,-0.250
15.525,-0.255
15.528,-0.240
15.531,-0.235
15.533,-0.245
15.536,-0.235
15.539,-0.235
15.542,-0.220
15.544,-0.215
15.547,-0.220
15.550,-0.240
15.553,-0.240
15.556,-0.240
15.558,-0.255
15.561,-0.255
15.564,-0.245
15.567,-0.240
15.569,-0.235
15.572,-0.225
15.575,-0.220
15.578,-0.220
15.581,-0.230
15.583,-0.225
15.586,-0.240
15.589,-0.245
15.592,-0.245
15.594,-0.245
15.597,-0.235
15.600,-0.230
15.603,-0.230
15.606,-0.220
15.608,-0.225
15.611,-0.225
15.614,-0.240
15.617,-0.235
15.619,-0.240
15.622,-0.250
15.625,-0.250
15.628,-0.255
15.631,-0.260
15.633,-0.245
15.636,-0.240
15.639,-0.235
15.642,-0.225
15.644,-0.230
15.647,-0.240
15.650,-0.250
15.653,-0.245
15.656,-0.245
15.658,-0.255
15.661,-0.255
15.664,-0.250
15.667,-0.250
15.669,-0.245
15.672,-0.235
15.675,-0.235
15.678,-0.245
15.681,-0.245
15.683,-0.245
15.686,-0.255
15.689,-0.260
15.692,-0.270
15.694,-0.250
15.697,-0.255
15.700,-0.250
15.703,-0.245
15.706,-0.230
15.708,-0.215
15.711,-0.215
15.714,-0.225
15.717,-0.220
15.719,-0.235
15.722,-0.225
15.725,-0.245
15.728,-0.245
15.731,-0.225
15.733,-0.220
15.736,-0.215
15.739,-0.210
15.742,-0.205
15.744,-0.195
15.747,-0.210
15.750,-0.200
15.753,-0.215
15.756,-0.220
15.758,-0.230
15.761,-0.220
15.764,-0.210
15.767,-0.210
15.769,-0.210
15.772,-0.200
15.775,-0.205
15.778,-0.185
15.781,-0.190
15.783,-0.200
15.786,-0.200
15.789,-0.210
15.792,-0.225
15.794,-0.205
15.797,-0.210
15.800,-0.210
15.803,-0.195
15.806,-0.190
15.808,-0.185
15.811,-0.175
15.814,-0.195
15.817,-0.205
15.819,-0.200
15.822,-0.205
15.825,-0.210
15.828,-0.215
15.831,-0.210
15.833,-0.205
15.836,-0.195
15.839,-0.200
15.842,-0.185
15.844,-0.185
15.847,-0.190
15.850,-0.195
15.853,-0.215
15.856,-0.220
15.858,-0.215
15.861,-0.220
15.864,-0.210
15.867,-0.210
15.869,-0.205
15.872,-0.205
15.875,-0.195
15.878,-0.200
15.881,-0.215
15.883,-0.210
15.886,-0.200
15.889,-0.220
15.892,-0.230
15.894,-0.235
15.897,-0.230
15.900,-0.225
15.903,-0.220
15.906,-0.215
15.908,-0.215
15.911,-0.205
15.914,-0.210
15.917,-0.220
15.919,-0.215
15.922,-0.225
15.925,-0.240
15.928,-0.240
15.931,-0.230
15.933,-0.220
15.936,-0.205
15.939,-0.200
15.942,-0.200
15.944,-0.200
15.947,-0.215
15.950,-0.220
15.953,-0.225
15.956,-0.230
15.958,-0.235
15.961,-0.235
15.964,-0.225
15.967,-0.225
15.969,-0.215
15.972,-0.210
15.975,-0.200
15.978,-0.200
15.981,-0.195
15.983,-0.195
15.986,-0.210
15.989,-0.210
15.992,-0.205
15.994,-0.210
15.997,-0.195
16.000,-0.175
16.003,-0.160
16.006,-0.155
16.008,-0.155
16.011,-0.140
16.014,-0.145
16.017,-0.150
16.019,-0.160
16.022,-0.165
16.025,-0.175
16.028,-0.190
16.031,-0.200
16.033,-0.210
16.036,-0.205
16.039,-0.200
16.042,-0.180
16.044,-0.185
16.047,-0.180
16.050,-0.190
16.053,-0.195
16.056,-0.200
16.058,-0.210
16.061,-0.210
16.064,-0.205
16.067,-0.210
16.069,-0.190
16.072,-0.190
16.075,-0.170
16.078,-0.195
16.081,-0.195
16.083,-0.200
16.086,-0.210
16.089,-0.220
16.092,-0.235
16.094,-0.250
16.097,-0.240
16.100,-0.235
16.103,-0.225
16.106,-0.225
16.108,-0.225
16.111,-0.225
16.114,-0.225
16.117,-0.225
16.119,-0.235
16.122,-0.235
16.125,-0.250
16.128,-0.250
16.131,-0.240
16.133,-0.235
16.136,-0.230
16.139,-0.215
16.142,-0.215
16.144,-0.210
16.147,-0.220
16.150,-0.215
16.153,-0.230
16.156,-0.235
16.158,-0.235
16.161,-0.245
16.164,-0.225
16.167,-0.230
16.169,-0.220
16.172,-0.215
16.175,-0.215
16.178,-0.205
16.181,-0.210
16.183,-0.205
16.186,-0.220
16.189,-0.220
16.192,-0.210
16.194,-0.200
16.197,-0.190
16.200,-0.175
16.203,-0.175
16.206,-0.190
16.208,-0.225
16.211,-0.275
16.214,-0.360
16.217,-0.460
16.219,-0.565
16.222,-0.640
16.225,-0.675
16.228,-0.680
16.231,-0.635
16.233,-0.555
16.236,-0.440
16.239,-0.350
16.242,-0.255
16.244,-0.215
16.247,-0.185
16.250,-0.185
16.253,-0.205
16.256,-0.240
16.258,-0.265
16.261,-0.280
16.264,-0.275
16.267,-0.275
16.269,-0.235
16.272,-0.200
16.275,-0.170
16.278,-0.150
16.281,-0.140
16.283,-0.155
16.286,-0.160
16.289,-0.170
16.292,-0.185
16.294,-0.190
16.297,-0.180
16.300,-0.170
16.303,-0.175
16.306,-0.165
16.308,-0.165
16.311,-0.160
16.314,-0.165
16.317,-0.170
16.319,-0.170
16.322,-0.185
16.325,-0.185
16.328,-0.195
16.331,-0.180
16.333,-0.190
16.336,-0.180
16.339,-0.170
16.342,-0.160
16.344,-0.180
16.347,-0.185
16.350,-0.180
16.353,-0.180
16.356,-0.190
16.358,-0.195
16.361,-0.200
16.364,-0.200
16.367,-0.195
16.369,-0.185
16.372,-0.180
16.375,-0.180
16.378,-0.170
16.381,-0.185
16.383,-0.180
16.386,-0.185
16.389,-0.200
16.392,-0.205
16.394,-0.200
16.397,-0.200
16.400,-0.195
16.403,-0.180
16.406,-0.175
16.408,-0.175
16.411,-0.175
16.414,-0.185
16.417,-0.175
16.419,-0.200
16.422,-0.200
16.425,-0.210
16.428,-0.210
16.431,-0.210
16.433,-0.210
16.436,-0.190
16.439,-0.195
16.442,-0.190
16.444,-0.190
16.447,-0.200
16.450,-0.200
16.453,-0.215
16.456,-0.210
16.458,-0.215
16.461,-0.215
16.464,-0.215
16.467,-0.220
16.469,-0.205
16.472,-0.200
16.475,-0.190
16.478,-0.185
16.481,-0.195
16.483,-0.185
16.486,-0.210
16.489,-0.215
16.492,-0.230
16.494,-0.230
16.497,-0.215
16.500,-0.215
16.503,-0.210
16.506,-0.200
16.508,-0.200
16.511,-0.190
16.514,-0.210
16.517,-0.205
16.519,-0.215
16.522,-0.225
16.525,-0.230
16.528,-0.225
16.531,-0.220
16.533,-0.240
16.536,-0.230
16.539,-0.240
16.542,-0.225
16.544,-0.215
16.547,-0.225
16.550,-0.230
16.553,-0.235
16.556,-0.240
16.558,-0.250
16.561,-0.240
16.564,-0.235
16.567,-0.230
16.569,-0.225
16.572,-0.220
16.575,-0.205
16.578,-0.210
16.581,-0.210
16.583,-0.220
16.586,-0.215
16.589,-0.230
16.592,-0.230
16.594,-0.230
16.597,-0.220
16.600,-0.215
16.603,-0.220
16.606,-0.195
16.608,-0.190
16.611,-0.185
16.614,-0.185
16.617,-0.190
16.619,-0.200
16.622,-0.200
16.625,-0.205
16.628,-0.210
16.631,-0.200
16.633,-0.200
16.636,-0.195
16.639,-0.165
16.642,-0.170
16.644,-0.165
16.647,-0.170
16.650,-0.175
16.653,-0.180
16.656,-0.185
16.658,-0.190
16.661,-0.185
16.664,-0.185
16.667,-0.180
16.669,-0.175
16.672,-0.165
16.675,-0.160
16.678,-0.170
16.681,-0.155
16.683,-0.170
16.686,-0.170
16.689,-0.175
16.692,-0.175
16.694,-0.175
16.697,-0.165
16.700,-0.175
16.703,-0.175
16.706,-0.155
16.708,-0.150
16.711,-0.150
16.714,-0.165
16.717,-0.145
16.719,-0.170
16.722,-0.180
16.725,-0.200
16.728,-0.185
16.731,-0.180
16.733,-0.175
16.736,-0.165
16.739,-0.160
16.742,-0.160
16.744,-0.150
16.747,-0.160
16.750,-0.165
16.753,-0.175
16.756,-0.180
16.758,-0.200
16.761,-0.205
16.764,-0.190
16.767,-0.180
16.769,-0.180
16.772,-0.165
16.775,-0.170
16.778,-0.155
16.781,-0.175
16.783,-0.175
16.786,-0.185
16.789,-0.190
16.792,-0.195
16.794,-0.190
16.797,-0.195
16.800,-0.195
16.803,-0.185
16.806,-0.175
16.808,-0.165
16.811,-0.175
16.814,-0.175
16.817,-0.170
16.819,-0.180
16.822,-0.195
16.825,-0.195
16.828,-0.210
16.831,-0.190
16.833,-0.200
16.836,-0.190
16.839,-0.175
16.842,-0.170
16.844,-0.165
16.847,-0.170
16.850,-0.170
16.853,-0.175
16.856,-0.190
16.858,-0.190
16.861,-0.195
16.864,-0.190
16.867,-0.190
16.869,-0.170
16.872,-0.160
16.875,-0.135
16.878,-0.135
16.881,-0.140
16.883,-0.140
16.886,-0.140
16.889,-0.140
16.892,-0.150
16.894,-0.145
16.897,-0.145
16.900,-0.140
16.903,-0.135
16.906,-0.150
16.908,-0.150
16.911,-0.155
16.914,-0.180
16.917,-0.185
16.919,-0.190
16.922,-0.190
16.925,-0.185
16.928,-0.190
16.931,-0.185
16.933,-0.180
16.936,-0.180
16.939,-0.175
16.942,-0.175
16.944,-0.155
16.947,-0.160
16.950,-0.165
16.953,-0.180
16.956,-0.190
16.958,-0.195
16.961,-0.210
16.964,-0.210
16.967,-0.220
16.969,-0.210
16.972,-0.190
16.975,-0.190
16.978,-0.190
16.981,-0.195
16.983,-0.210
16.986,-0.215
16.989,-0.210
16.992,-0.230
16.994,-0.225
16.997,-0.220
17.000,-0.225
17.003,-0.220
17.006,-0.200
17.008,-0.200
17.011,-0.180
17.014,-0.205
17.017,-0.210
17.019,-0.205
17.022,-0.220
17.025,-0.225
17.028,-0.225
17.031,-0.220
17.033,-0.220
17.036,-0.215
17.039,-0.205
17.042,-0.210
17.044,-0.190
17.047,-0.210
17.050,-0.205
17.053,-0.215
17.056,-0.210
17.058,-0.220
17.061,-0.225
17.064,-0.205
17.067,-0.205
17.069,-0.190
17.072,-0.175
17.075,-0.155
17.078,-0.145
17.081,-0.170
17.083,-0.185
17.086,-0.220
17.089,-0.290
17.092,-0.350
17.094,-0.425
17.097,-0.520
17.100,-0.600
17.103,-0.655
17.106,-0.660
17.108,-0.630
17.111,-0.550
17.114,-0.470
17.117,-0.365
17.119,-0.275
17.122,-0.230
17.125,-0.210
17.128,-0.235
17.131,-0.240
17.133,-0.270
17.136,-0.275
17.139,-0.270
17.142,-0.245
17.144,-0.185
17.147,-0.175
17.150,-0.155
17.153,-0.160
17.156,-0.170
17.158,-0.180
17.161,-0.205
17.164,-0.200
17.167,-0.200
17.169,-0.185
17.172,-0.165
17.175,-0.160
17.178,-0.160
17.181,-0.165
17.183,-0.165
17.186,-0.180
17.189,-0.180
17.192,-0.200
17.194,-0.200
17.197,-0.190
17.200,-0.190
17.203,-0.190
17.206,-0.170
17.208,-0.175
17.211,-0.180
17.214,-0.185
17.217,-0.180
17.219,-0.185
17.222,-0.195
17.225,-0.205
17.228,-0.200
17.231,-0.200
17.233,-0.205
17.236,-0.185
17.239,-0.190
17.242,-0.185
17.244,-0.185
17.247,-0.190
17.250,-0.190
17.253,-0.190
17.256,-0.200
17.258,-0.215
17.261,-0.210
17.264,-0.210
17.267,-0.200
17.269,-0.205
17.272,-0.200
17.275,-0.205
17.278,-0.185
17.281,-0.190
17.283,-0.195
17.286,-0.215
17.289,-0.215
17.292,-0.215
17.294,-0.225
17.297,-0.215
17.300,-0.210
17.303,-0.205
17.306,-0.200
17.308,-0.190
17.311,-0.200
17.314,-0.205
17.317,-0.205
17.319,-0.210
17.322,-0.225
17.325,-0.230
17.328,-0.230
17.331,-0.220
17.333,-0.215
17.336,-0.205
17.339,-0.195
17.342,-0.195
17.344,-0.195
17.347,-0.195
17.350,-0.200
17.353,-0.220
17.356,-0.215
17.358,-0.225
17.361,-0.230
17.364,-0.225
17.367,-0.215
17.369,-0.215
17.372,-0.215
17.375,-0.210
17.378,-0.205
17.381,-0.200
17.383,-0.205
17.386,-0.215
17.389,-0.225
17.392,-0.225
17.394,-0.235
17.397,-0.240
17.400,-0.240
17.403,-0.220
17.406,-0.230
17.408,-0.215
17.411,-0.210
17.414,-0.215
17.417,-0.225
17.419,-0.230
17.422,-0.250
17.425,-0.250
17.428,-0.255
17.431,-0.240
17.433,-0.240
17.436,-0.235
17.439,-0.230
17.442,-0.220
17.444,-0.225
17.447,-0.220
17.450,-0.220
17.453,-0.225
17.456,-0.235
17.458,-0.240
17.461,-0.245
17.464,-0.240
17.467,-0.225
17.469,-0.225
17.472,-0.210
17.475,-0.210
17.478,-0.200
17.481,-0.205
17.483,-0.210
17.486,-0.220
17.489,-0.220
17.492,-0.220
17.494,-0.235
17.497,-0.220
17.500,-0.220
17.503,-0.215
17.506,-0.200
17.508,-0.195
17.511,-0.195
17.514,-0.200
17.517,-0.195
17.519,-0.205
17.522,-0.215
17.525,-0.215
17.528,-0.225
17.531,-0.215
17.533,-0.205
17.536,-0.195
17.539,-0.205
17.542,-0.185
17.544,-0.185
17.547,-0.185
17.550,-0.200
17.553,-0.200
17.556,-0.210
17.558,-0.220
17.561,-0.215
17.564,-0.210
17.567,-0.225
17.569,-0.195
17.572,-0.205
17.575,-0.195
17.578,-0.180
17.581,-0.195
17.583,-0.205
17.586,-0.205
17.589,-0.215
17.592,-0.215
17.594,-0.220
17.597,-0.210
17.600,-0.210
17.603,-0.205
17.606,-0.200
17.608,-0.205
17.611,-0.190
17.614,-0.195
17.617,-0.195
17.619,-0.205
17.622,-0.215
17.625,-0.225
17.628,-0.235
17.631,-0.230
17.633,-0.215
17.636,-0.220
17.639,-0.210
17.642,-0.200
17.644,-0.210
17.647,-0.210
17.650,-0.210
17.653,-0.225
17.656,-0.225
17.658,-0.230
17.661,-0.230
17.664,-0.250
17.667,-0.230
17.669,-0.230
17.672,-0.215
17.675,-0.215
17.678,-0.220
17.681,-0.225
17.683,-0.220
17.686,-0.230
17.689,-0.240
17.692,-0.250
17.694,-0.245
17.697,-0.245
17.700,-0.230
17.703,-0.230
17.706,-0.220
17.708,-0.225
17.711,-0.215
17.714,-0.225
17.717,-0.210
17.719,-0.230
17.722,-0.230
17.725,-0.235
17.728,-0.245
17.731,-0.240
17.733,-0.235
17.736,-0.230
17.739,-0.230
17.742,-0.220
17.744,-0.220
17.747,-0.220
17.750,-0.210
17.753,-0.225
17.756,-0.235
17.758,-0.245
17.761,-0.245
17.764,-0.245
17.767,-0.235
17.769,-0.235
17.772,-0.225
17.775,-0.220
17.778,-0.220
17.781,-0.220
17.783,-0.225
17.786,-0.230
17.789,-0.235
17.792,-0.240
17.794,-0.240
17.797,-0.235
17.800,-0.230
17.803,-0.210
17.806,-0.200
17.808,-0.190
17.811,-0.180
17.814,-0.175
17.817,-0.165
17.819,-0.170
17.822,-0.180
17.825,-0.180
17.828,-0.180
17.831,-0.185
17.833,-0.195
17.836,-0.195
17.839,-0.200
17.842,-0.210
17.844,-0.205
17.847,-0.215
17.850,-0.225
17.853,-0.225
17.856,-0.230
17.858,-0.235
17.861,-0.225
17.864,-0.225
17.867,-0.230
17.869,-0.225
17.872,-0.220
17.875,-0.215
17.878,-0.210
17.881,-0.200
17.883,-0.220
17.886,-0.220
17.889,-0.225
17.892,-0.230
17.894,-0.230
17.897,-0.255
17.900,-0.255
17.903,-0.255
17.906,-0.240
17.908,-0.250
17.911,-0.245
17.914,-0.245
17.917,-0.245
17.919,-0.245
17.922,-0.255
17.925,-0.270
17.928,-0.260
17.931,-0.270
17.933,-0.260
17.936,-0.260
17.939,-0.260
17.942,-0.245
17.944,-0.240
17.947,-0.235
17.950,-0.240
17.953,-0.240
17.956,-0.255
17.958,-0.250
17.961,-0.265
17.964,-0.260
17.967,-0.265
17.969,-0.255
17.972,-0.250
17.975,-0.240
17.978,-0.230
17.981,-0.235
17.983,-0.235
17.986,-0.250
17.989,-0.265
17.992,-0.255
17.994,-0.265
17.997,-0.280
18.000,-0.260
18.003,-0.245
18.006,-0.225
18.008,-0.210
18.011,-0.195
18.014,-0.195
18.017,-0.215
18.019,-0.260
18.022,-0.320
18.025,-0.380
18.028,-0.475
18.031,-0.565
18.033,-0.655
18.036,-0.715
18.039,-0.740
18.042,-0.725
18.044,-0.665
18.047,-0.600
18.050,-0.520
18.053,-0.430
18.056,-0.360
18.058,-0.325
18.061,-0.310
18.064,-0.305
18.067,-0.330
18.069,-0.350
18.072,-0.345
18.075,-0.330
18.078,-0.290
18.081,-0.255
18.083,-0.230
18.086,-0.205
18.089,-0.195
18.092,-0.190
18.094,-0.205
18.097,-0.215
18.100,-0.215
18.103,-0.205
18.106,-0.200
18.108,-0.195
18.111,-0.170
18.114,-0.180
18.117,-0.185
18.119,-0.200
18.122,-0.205
18.125,-0.205
18.128,-0.215
18.131,-0.215
18.133,-0.210
18.136,-0.210
18.139,-0.200
18.142,-0.190
18.144,-0.185
18.147,-0.185
18.150,-0.190
18.153,-0.205
18.156,-0.200
18.158,-0.210
18.161,-0.225
18.164,-0.220
18.167,-0.225
18.169,-0.210
18.172,-0.200
18.175,-0.200
18.178,-0.180
18.181,-0.185
18.183,-0.200
18.186,-0.205
18.189,-0.215
18.192,-0.215
18.194,-0.235
18.197,-0.225
18.200,-0.225
18.203,-0.210
18.206,-0.215
18.208,-0.190
18.211,-0.195
18.214,-0.195
18.217,-0.200
18.219,-0.210
18.222,-0.210
18.225,-0.230
18.228,-0.230
18.231,-0.230
18.233,-0.230
18.236,-0.225
18.239,-0.215
18.242,-0.195
18.244,-0.195
18.247,-0.215
18.250,-0.215
18.253,-0.210
18.256,-0.220
18.258,-0.220
18.261,-0.245
18.264,-0.225
18.267,-0.230
18.269,-0.220
18.272,-0.215
18.275,-0.205
18.278,-0.195
18.281,-0.200
18.283,-0.210
18.286,-0.220
18.289,-0.215
18.292,-0.235
18.294,-0.230
18.297,-0.235
18.300,-0.230
18.303,-0.220
18.306,-0.230
18.308,-0.215
18.311,-0.205
18.314,-0.195
18.317,-0.220
18.319,-0.210
18.322,-0.225
18.325,-0.240
18.328,-0.235
18.331,-0.225
18.333,-0.235
18.336,-0.230
18.339,-0.235
18.342,-0.215
18.344,-0.205
18.347,-0.215
18.350,-0.230
18.353,-0.230
18.356,-0.230
18.358,-0.245
18.361,-0.240
18.364,-0.250
18.367,-0.245
18.369,-0.250
18.372,-0.230
18.375,-0.220
18.378,-0.215
18.381,-0.230
18.383,-0.245
18.386,-0.240
18.389,-0.240
18.392,-0.260
18.394,-0.255
18.397,-0.260
18.400,-0.255
18.403,-0.255
18.406,-0.245
18.408,-0.240
18.411,-0.225
18.414,-0.230
18.417,-0.240
18.419,-0.230
18.422,-0.230
18.425,-0.245
18.428,-0.245
18.431,-0.255
18.433,-0.245
18.436,-0.230
18.439,-0.240
18.442,-0.225
18.444,-0.205
18.447,-0.200
18.450,-0.215
18.453,-0.220
18.456,-0.230
18.458,-0.240
18.461,-0.230
18.464,-0.230
18.467,-0.225
18.469,-0.220
18.472,-0.210
18.475,-0.215
18.478,-0.200
18.481,-0.200
18.483,-0.205
18.486,-0.215
18.489,-0.210
18.492,-0.210
18.494,-0.230
18.497,-0.230
18.500,-0.225
18.503,-0.210
18.506,-0.200
18.508,-0.190
18.511,-0.200
18.514,-0.195
18.517,-0.210
18.519,-0.200
18.522,-0.225
18.525,-0.215
18.528,-0.225
18.531,-0.230
18.533,-0.215
18.536,-0.215
18.539,-0.210
18.542,-0.200
18.544,-0.195
18.547,-0.195
18.550,-0.205
18.553,-0.215
18.556,-0.220
18.558,-0.220
18.561,-0.230
18.564,-0.220
18.567,-0.215
18.569,-0.215
18.572,-0.210
18.575,-0.200
18.578,-0.200
18.581,-0.200
18.583,-0.215
18.586,-0.210
18.589,-0.215
18.592,-0.220
18.594,-0.225
18.597,-0.230
18.600,-0.225
18.603,-0.210
18.606,-0.210
18.608,-0.215
18.611,-0.210
18.614,-0.195
18.617,-0.210
18.619,-0.210
18.622,-0.230
18.625,-0.235
18.628,-0.240
18.631,-0.245
18.633,-0.240
18.636,-0.230
18.639,-0.215
18.642,-0.215
18.644,-0.210
18.647,-0.205
18.650,-0.205
18.653,-0.220
18.656,-0.240
18.658,-0.235
18.661,-0.250
18.664,-0.250
18.667,-0.245
18.669,-0.240
18.672,-0.230
18.675,-0.220
18.678,-0.220
18.681,-0.220
18.683,-0.225
18.686,-0.220
18.689,-0.240
18.692,-0.235
18.694,-0.240
18.697,-0.240
18.700,-0.235
18.703,-0.230
18.706,-0.225
18.708,-0.230
18.711,-0.215
18.714,-0.220
18.717,-0.225
18.719,-0.215
18.722,-0.230
18.725,-0.235
18.728,-0.240
18.731,-0.245
18.733,-0.240
18.736,-0.240
18.739,-0.225
18.742,-0.225
18.744,-0.215
18.747,-0.215
18.750,-0.225
18.753,-0.230
18.756,-0.230
18.758,-0.235
18.761,-0.245
18.764,-0.240
18.767,-0.235
18.769,-0.230
18.772,-0.220
18.775,-0.215
18.778,-0.220
18.781,-0.210
18.783,-0.220
18.786,-0.220
18.789,-0.240
18.792,-0.230
18.794,-0.240
18.797,-0.240
18.800,-0.235
18.803,-0.240
18.806,-0.215
18.808,-0.215
18.811,-0.195
18.814,-0.195
18.817,-0.185
18.819,-0.185
18.822,-0.180
18.825,-0.180
18.828,-0.180
18.831,-0.175
18.833,-0.180
18.836,-0.160
18.839,-0.145
18.842,-0.150
18.844,-0.160
18.847,-0.155
18.850,-0.180
18.853,-0.200
18.856,-0.230
18.858,-0.230
18.861,-0.245
18.864,-0.245
18.867,-0.225
18.869,-0.215
18.872,-0.205
18.875,-0.190
18.878,-0.200
18.881,-0.200
18.883,-0.205
18.886,-0.215
18.889,-0.220
18.892,-0.215
18.894,-0.230
18.897,-0.230
18.900,-0.230
18.903,-0.230
18.906,-0.225
18.908,-0.230
18.911,-0.225
18.914,-0.225
18.917,-0.235
18.919,-0.240
18.922,-0.245
18.925,-0.250
18.928,-0.255
18.931,-0.255
18.933,-0.245
18.936,-0.245
18.939,-0.245
18.942,-0.225
18.944,-0.235
18.947,-0.220
18.950,-0.230
18.953,-0.235
18.956,-0.240
18.958,-0.255
18.961,-0.265
18.964,-0.255
18.967,-0.245
18.969,-0.245
18.972,-0.230
18.975,-0.230
18.978,-0.230
18.981,-0.220
18.983,-0.220
18.986,-0.230
18.989,-0.235
18.992,-0.245
18.994,-0.245
18.997,-0.245
19.000,-0.235
19.003,-0.230
19.006,-0.220
19.008,-0.185
19.011,-0.180
19.014,-0.155
19.017,-0.175
19.019,-0.215
19.022,-0.270
19.025,-0.335
19.028,-0.430
19.031,-0.525
19.033,-0.620
19.036,-0.695
19.039,-0.730
19.042,-0.730
19.044,-0.690
19.047,-0.605
19.050,-0.530
19.053,-0.435
19.056,-0.345
19.058,-0.305
19.061,-0.280
19.064,-0.275
19.067,-0.280
19.069,-0.320
19.072,-0.320
19.075,-0.295
19.078,-0.255
19.081,-0.205
19.083,-0.180
19.086,-0.165
19.089,-0.165
19.092,-0.175
19.094,-0.170
19.097,-0.190
19.100,-0.190
19.103,-0.170
19.106,-0.170
19.108,-0.165
19.111,-0.155
19.114,-0.145
19.117,-0.160
19.119,-0.165
19.122,-0.175
19.125,-0.180
19.128,-0.180
19.131,-0.180
19.133,-0.165
19.136,-0.175
19.139,-0.175
19.142,-0.165
19.144,-0.155
19.147,-0.150
19.150,-0.160
19.153,-0.160
19.156,-0.160
19.158,-0.170
19.161,-0.180
19.164,-0.175
19.167,-0.175
19.169,-0.170
19.172,-0.165
19.175,-0.150
19.178,-0.145
19.181,-0.145
19.183,-0.165
19.186,-0.155
19.189,-0.170
19.192,-0.180
19.194,-0.170
19.197,-0.180
19.200,-0.175
19.203,-0.170
19.206,-0.165
19.208,-0.160
19.211,-0.160
19.214,-0.160
19.217,-0.165
19.219,-0.155
19.222,-0.175
19.225,-0.170
19.228,-0.180
19.231,-0.185
19.233,-0.175
19.236,-0.175
19.239,-0.160
19.242,-0.165
19.244,-0.145
19.247,-0.160
19.250,-0.155
19.253,-0.160
19.256,-0.165
19.258,-0.170
19.261,-0.175
19.264,-0.185
19.267,-0.170
19.269,-0.175
19.272,-0.170
19.275,-0.155
19.278,-0.150
19.281,-0.150
19.283,-0.160
19.286,-0.165
19.289,-0.170
19.292,-0.180
19.294,-0.195
19.297,-0.190
19.300,-0.180
19.303,-0.185
19.306,-0.180
19.308,-0.170
19.311,-0.160
19.314,-0.165
19.317,-0.160
19.319,-0.165
19.322,-0.175
19.325,-0.180
19.328,-0.185
19.331,-0.190
19.333,-0.185
19.336,-0.185
19.339,-0.170
19.342,-0.180
19.344,-0.160
19.347,-0.160
19.350,-0.170
19.353,-0.175
19.356,-0.175
19.358,-0.185
19.361,-0.200
19.364,-0.195
19.367,-0.195
19.369,-0.190
19.372,-0.185
19.375,-0.185
19.378,-0.185
19.381,-0.185
19.383,-0.175
19.386,-0.185
19.389,-0.200
19.392,-0.200
19.394,-0.195
19.397,-0.205
19.400,-0.195
19.403,-0.195
19.406,-0.190
19.408,-0.185
19.411,-0.170
19.414,-0.165
19.417,-0.165
19.419,-0.175
19.422,-0.170
19.425,-0.180
19.428,-0.170
19.431,-0.185
19.433,-0.180
19.436,-0.175
19.439,-0.170
19.442,-0.145
19.444,-0.145
19.447,-0.130
19.450,-0.140
19.453,-0.150
19.456,-0.155
19.458,-0.150
19.461,-0.170
19.464,-0.160
19.467,-0.160
19.469,-0.160
19.472,-0.140
19.475,-0.140
19.478,-0.140
19.481,-0.130
19.483,-0.145
19.486,-0.140
19.489,-0.145
19.492,-0.140
19.494,-0.165
19.497,-0.160
19.500,-0.160
19.503,-0.155
19.506,-0.155
19.508,-0.135
19.511,-0.135
19.514,-0.120
19.517,-0.135
19.519,-0.125
19.522,-0.140
19.525,-0.145
19.528,-0.160
19.531,-0.155
19.533,-0.155
19.536,-0.145
19.539,-0.140
19.542,-0.135
19.544,-0.125
19.547,-0.120
19.550,-0.135
19.553,-0.140
19.556,-0.140
19.558,-0.155
19.561,-0.165
19.564,-0.155
19.567,-0.150
19.569,-0.150
19.572,-0.140
19.575,-0.145
19.578,-0.140
19.581,-0.130
19.583,-0.125
19.586,-0.130
19.589,-0.140
19.592,-0.150
19.594,-0.155
19.597,-0.165
19.600,-0.155
19.603,-0.160
19.606,-0.145
19.608,-0.150
19.611,-0.140
19.614,-0.130
19.617,-0.145
19.619,-0.150
19.622,-0.165
19.625,-0.140
19.628,-0.160
19.631,-0.175
19.633,-0.160
19.636,-0.165
19.639,-0.160
19.642,-0.155
19.644,-0.140
19.647,-0.135
19.650,-0.135
19.653,-0.150
19.656,-0.160
19.658,-0.150
19.661,-0.170
19.664,-0.175
19.667,-0.160
19.669,-0.155
19.672,-0.140
19.675,-0.145
19.678,-0.145
19.681,-0.135
19.683,-0.140
19.686,-0.145
19.689,-0.155
19.692,-0.155
19.694,-0.155
19.697,-0.165
19.700,-0.150
19.703,-0.150
19.706,-0.140
19.708,-0.130
19.711,-0.115
19.714,-0.100
19.717,-0.110
19.719,-0.110
19.722,-0.105
19.725,-0.105
19.728,-0.100
19.731,-0.105
19.733,-0.095
19.736,-0.100
19.739,-0.080
19.742,-0.080
19.744,-0.090
19.747,-0.100
19.750,-0.125
19.753,-0.145
19.756,-0.160
19.758,-0.150
19.761,-0.155
19.764,-0.155
19.767,-0.140
19.769,-0.135
19.772,-0.145
19.775,-0.135
19.778,-0.135
19.781,-0.130
19.783,-0.130
19.786,-0.130
19.789,-0.145
19.792,-0.155
19.794,-0.160
19.797,-0.170
19.800,-0.160
19.803,-0.175
19.806,-0.165
19.808,-0.160
19.811,-0.145
19.814,-0.150
19.817,-0.155
19.819,-0.165
19.822,-0.175
19.825,-0.165
19.828,-0.175
19.831,-0.180
19.833,-0.180
19.836,-0.165
19.839,-0.165
19.842,-0.145
19.844,-0.145
19.847,-0.140
19.850,-0.150
19.853,-0.155
19.856,-0.160
19.858,-0.165
19.861,-0.170
19.864,-0.170
19.867,-0.180
19.869,-0.165
19.872,-0.155
19.875,-0.150
19.878,-0.145
19.881,-0.150
19.883,-0.145
19.886,-0.150
19.889,-0.155
19.892,-0.170
19.894,-0.165
19.897,-0.165
19.900,-0.150
19.903,-0.130
19.906,-0.115
19.908,-0.105
19.911,-0.110
19.914,-0.135
19.917,-0.180
19.919,-0.230
19.922,-0.295
19.925,-0.365
19.928,-0.455
19.931,-0.530
19.933,-0.575
19.936,-0.595
19.939,-0.575
19.942,-0.525
19.944,-0.435
19.947,-0.335
19.950,-0.245
19.953,-0.175
19.956,-0.125
19.958,-0.120
19.961,-0.145
19.964,-0.155
19.967,-0.170
19.969,-0.200
19.972,-0.190
19.975,-0.180
19.978,-0.135
19.981,-0.105
19.983,-0.090
19.986,-0.085
19.989,-0.090
19.992,-0.100
19.994,-0.120
19.997,-0.130
20.000,-0.120
20.003,-0.120
20.006,-0.125
20.008,-0.110
20.011,-0.095
20.014,-0.100
20.017,-0.095
20.019,-0.110
20.022,-0.105
20.025,-0.120
20.028,-0.125
20.031,-0.135
20.033,-0.120
20.036,-0.120
20.039,-0.110
20.042,-0.105
20.044,-0.100
20.047,-0.100
20.050,-0.110
20.053,-0.120
20.056,-0.110
20.058,-0.130
20.061,-0.130
20.064,-0.135
20.067,-0.125
20.069,-0.130
20.072,-0.120
20.075,-0.115
20.078,-0.105
20.081,-0.105
20.083,-0.110
20.086,-0.105
20.089,-0.120
20.092,-0.135
20.094,-0.130
20.097,-0.135
20.100,-0.140
20.103,-0.135
20.106,-0.125
20.108,-0.115
20.111,-0.110
20.114,-0.115
20.117,-0.115
20.119,-0.120
20.122,-0.115
20.125,-0.130
20.128,-0.145
20.131,-0.145
20.133,-0.145
20.136,-0.135
20.139,-0.120
20.142,-0.120
20.144,-0.125
20.147,-0.115
20.150,-0.120
20.153,-0.115
20.156,-0.135
20.158,-0.130
20.161,-0.135
20.164,-0.150
20.167,-0.150
20.169,-0.135
20.172,-0.130
20.175,-0.135
20.178,-0.125
20.181,-0.120
20.183,-0.130
20.186,-0.130
20.189,-0.135
20.192,-0.140
20.194,-0.145
20.197,-0.145
20.200,-0.155
20.203,-0.155
20.206,-0.140
20.208,-0.140
20.211,-0.130
20.214,-0.135
20.217,-0.135
20.219,-0.145
20.222,-0.155
20.225,-0.160
20.228,-0.160
20.231,-0.170
20.233,-0.175
20.236,-0.170
20.239,-0.160
20.242,-0.160
20.244,-0.140
20.247,-0.145
20.250,-0.150
20.253,-0.155
20.256,-0.165
20.258,-0.175
20.261,-0.180
20.264,-0.190
20.267,-0.175
20.269,-0.170
20.272,-0.170
20.275,-0.160
20.278,-0.150
20.281,-0.145
20.283,-0.150
20.286,-0.160
20.289,-0.155
20.292,-0.165
20.294,-0.170
20.297,-0.165
20.300,-0.160
20.303,-0.150
20.306,-0.145
20.308,-0.140
20.311,-0.120
20.314,-0.115
20.317,-0.125
20.319,-0.120
20.322,-0.125
20.325,-0.125
20.328,-0.125
20.331,-0.135
20.333,-0.135
20.336,-0.125
20.339,-0.120
20.342,-0.105
20.344,-0.095
20.347,-0.100
20.350,-0.095
20.353,-0.095
20.356,-0.110
20.358,-0.120
20.361,-0.110
20.364,-0.130
20.367,-0.120
20.369,-0.120
20.372,-0.110
20.375,-0.110
20.378,-0.110
20.381,-0.095
20.383,-0.085
20.386,-0.110
20.389,-0.105
20.392,-0.115
20.394,-0.110
20.397,-0.125
20.400,-0.125
20.403,-0.120
20.406,-0.110
20.408,-0.115
20.411,-0.100
20.414,-0.090
20.417,-0.095
20.419,-0.100
20.422,-0.100
20.425,-0.130
20.428,-0.115
20.431,-0.130
20.433,-0.120
20.436,-0.125
20.439,-0.110
20.442,-0.110
20.444,-0.110
20.447,-0.090
20.450,-0.105
20.453,-0.115
20.456,-0.120
20.458,-0.110
20.461,-0.130
20.464,-0.130
20.467,-0.135
20.469,-0.125
20.472,-0.120
20.475,-0.115
20.478,-0.110
20.481,-0.110
20.483,-0.115
20.486,-0.115
20.489,-0.125
20.492,-0.120
20.494,-0.150
20.497,-0.140
20.500,-0.130
20.503,-0.130
20.506,-0.120
20.508,-0.120
20.511,-0.115
20.514,-0.100
20.517,-0.110
20.519,-0.110
20.522,-0.125
20.525,-0.125
20.528,-0.140
20.531,-0.145
20.533,-0.135
20.536,-0.130
20.539,-0.125
20.542,-0.130
20.544,-0.120
20.547,-0.120
20.550,-0.115
20.553,-0.110
20.556,-0.125
20.558,-0.140
20.561,-0.140
20.564,-0.145
20.567,-0.135
20.569,-0.130
20.572,-0.120
20.575,-0.100
20.578,-0.095
20.581,-0.080
20.583,-0.085
20.586,-0.085
20.589,-0.080
20.592,-0.095
20.594,-0.080
20.597,-0.090
20.600,-0.070
20.603,-0.095
20.606,-0.085
20.608,-0.085
20.611,-0.085
20.614,-0.105
20.617,-0.105
20.619,-0.130
20.622,-0.125
20.625,-0.135
20.628,-0.135
20.631,-0.130
20.633,-0.120
20.636,-0.130
20.639,-0.115
20.642,-0.115
20.644,-0.110
20.647,-0.110
20.650,-0.105
20.653,-0.110
20.656,-0.115
20.658,-0.120
20.661,-0.140
20.664,-0.145
20.667,-0.150
20.669,-0.160
20.672,-0.155
20.675,-0.155
20.678,-0.140
20.681,-0.145
20.683,-0.155
20.686,-0.155
20.689,-0.160
20.692,-0.165
20.694,-0.165
20.697,-0.180
20.700,-0.170
20.703,-0.175
20.706,-0.165
20.708,-0.160
20.711,-0.145
20.714,-0.135
20.717,-0.140
20.719,-0.150
20.722,-0.150
20.725,-0.160
20.728,-0.170
20.731,-0.165
20.733,-0.180
20.736,-0.165
20.739,-0.155
20.742,-0.140
20.744,-0.140
20.747,-0.135
20.750,-0.150
20.753,-0.150
20.756,-0.150
20.758,-0.170
20.761,-0.175
20.764,-0.175
20.767,-0.170
20.769,-0.165
20.772,-0.165
20.775,-0.155
20.778,-0.130
20.781,-0.110
20.783,-0.095
20.786,-0.110
20.789,-0.120
20.792,-0.155
20.794,-0.200
20.797,-0.260
20.800,-0.330
20.803,-0.420
20.806,-0.500
20.808,-0.560
20.811,-0.610
20.814,-0.605
20.817,-0.580
20.819,-0.525
20.822,-0.440
20.825,-0.345
20.828,-0.280
20.831,-0.235
20.833,-0.195
20.836,-0.185
20.839,-0.190
20.842,-0.200
20.844,-0.225
20.847,-0.210
20.850,-0.205
20.853,-0.180
20.856,-0.155
20.858,-0.125
20.861,-0.115
20.864,-0.110
20.867,-0.110
20.869,-0.125
20.872,-0.115
20.875,-0.110
20.878,-0.105
20.881,-0.105
20.883,-0.110
20.886,-0.100
20.889,-0.105
20.892,-0.110
20.894,-0.115
20.897,-0.140
20.900,-0.135
20.903,-0.130
20.906,-0.120
20.908,-0.115
20.911,-0.110
20.914,-0.105
20.917,-0.115
20.919,-0.110
20.922,-0.110
20.925,-0.125
20.928,-0.140
20.931,-0.135
20.933,-0.135
20.936,-0.140
20.939,-0.125
20.942,-0.125
20.944,-0.110
20.947,-0.115
20.950,-0.115
20.953,-0.115
20.956,-0.135
20.958,-0.140
20.961,-0.135
20.964,-0.150
20.967,-0.150
20.969,-0.145
20.972,-0.135
20.975,-0.125
20.978,-0.115
20.981,-0.120
20.983,-0.115
20.986,-0.120
20.989,-0.140
20.992,-0.140
20.994,-0.145
20.997,-0.160
21.000,-0.155
21.003,-0.140
21.006,-0.135
21.008,-0.135
21.011,-0.135
21.014,-0.125
21.017,-0.125
21.019,-0.130
21.022,-0.135
21.025,-0.140
21.028,-0.150
21.031,-0.155
21.033,-0.160
21.036,-0.160
21.039,-0.160
21.042,-0.145
21.044,-0.140
21.047,-0.135
21.050,-0.135
21.053,-0.145
21.056,-0.150
21.058,-0.145
21.061,-0.160
21.064,-0.160
21.067,-0.160
21.069,-0.150
21.072,-0.150
21.075,-0.150
21.078,-0.135
21.081,-0.140
21.083,-0.140
21.086,-0.145
21.089,-0.145
21.092,-0.155
21.094,-0.165
21.097,-0.160
21.100,-0.165
21.103,-0.165
21.106,-0.155
21.108,-0.150
21.111,-0.140
21.114,-0.135
21.117,-0.140
21.119,-0.145
21.122,-0.155
21.125,-0.160
21.128,-0.170
21.131,-0.155
21.133,-0.165
21.136,-0.155
21.139,-0.150
21.142,-0.155
21.144,-0.140
21.147,-0.150
21.150,-0.155
21.153,-0.160
21.156,-0.165
21.158,-0.165
21.161,-0.180
21.164,-0.185
21.167,-0.175
21.169,-0.175
21.172,-0.170
21.175,-0.170
21.178,-0.150
21.181,-0.155
21.183,-0.155
21.186,-0.175
21.189,-0.165
21.192,-0.185
21.194,-0.170
21.197,-0.190
21.200,-0.170
21.203,-0.165
21.206,-0.165
21.208,-0.165
21.211,-0.155
21.214,-0.140
21.217,-0.145
21.219,-0.150
21.222,-0.145
21.225,-0.160
21.228,-0.175
21.231,-0.165
21.233,-0.165
21.236,-0.160
21.239,-0.150
21.242,-0.145
21.244,-0.130
21.247,-0.145
21.250,-0.140
21.253,-0.140
21.256,-0.155
21.258,-0.160
21.261,-0.170
21.264,-0.160
21.267,-0.160
21.269,-0.150
21.272,-0.150
21.275,-0.140
21.278,-0.135
21.281,-0.135
21.283,-0.130
21.286,-0.130
21.289,-0.150
21.292,-0.135
21.294,-0.150
21.297,-0.150
21.300,-0.170
21.303,-0.155
21.306,-0.135
21.308,-0.145
21.311,-0.135
21.314,-0.135
21.317,-0.135
21.319,-0.140
21.322,-0.140
21.325,-0.155
21.328,-0.165
21.331,-0.155
21.333,-0.165
21.336,-0.160
21.339,-0.160
21.342,-0.140
21.344,-0.140
21.347,-0.140
21.350,-0.135
21.353,-0.145
21.356,-0.150
21.358,-0.155
21.361,-0.170
21.364,-0.170
21.367,-0.160
21.369,-0.165
21.372,-0.165
21.375,-0.160
21.378,-0.155
21.381,-0.145
21.383,-0.140
21.386,-0.150
21.389,-0.165
21.392,-0.175
21.394,-0.185
21.397,-0.180
21.400,-0.190
21.403,-0.170
21.406,-0.165
21.408,-0.170
21.411,-0.165
21.414,-0.160
21.417,-0.165
21.419,-0.175
21.422,-0.165
21.425,-0.175
21.428,-0.200
21.431,-0.200
21.433,-0.205
21.436,-0.185
21.439,-0.190
21.442,-0.175
21.444,-0.180
21.447,-0.175
21.450,-0.175
21.453,-0.180
21.456,-0.170
21.458,-0.185
21.461,-0.185
21.464,-0.195
21.467,-0.190
21.469,-0.190
21.472,-0.185
21.475,-0.195
21.478,-0.185
21.481,-0.170
21.483,-0.165
21.486,-0.180
21.489,-0.175
21.492,-0.180
21.494,-0.190
21.497,-0.200
21.500,-0.200
21.503,-0.195
21.506,-0.180
21.508,-0.170
21.511,-0.175
21.514,-0.145
21.517,-0.145
21.519,-0.155
21.522,-0.145
21.525,-0.150
21.528,-0.150
21.531,-0.155
21.533,-0.140
21.536,-0.125
21.539,-0.115
21.542,-0.105
21.544,-0.095
21.547,-0.115
21.550,-0.125
21.553,-0.130
21.556,-0.160
21.558,-0.165
21.561,-0.190
21.564,-0.200
21.567,-0.220
21.569,-0.195
21.572,-0.185
21.575,-0.160
21.578,-0.145
21.581,-0.150
21.583,-0.150
21.586,-0.165
21.589,-0.175
21.592,-0.185
21.594,-0.185
21.597,-0.180
21.600,-0.185
21.603,-0.175
21.606,-0.170
21.608,-0.170
21.611,-0.165
21.614,-0.165
21.617,-0.170
21.619,-0.195
21.622,-0.190
21.625,-0.215
21.628,-0.215
21.631,-0.225
21.633,-0.220
21.636,-0.215
21.639,-0.215
21.642,-0.205
21.644,-0.205
21.647,-0.200
21.650,-0.195
21.653,-0.205
21.656,-0.210
21.658,-0.225
21.661,-0.220
21.664,-0.215
21.667,-0.225
21.669,-0.210
21.672,-0.210
21.675,-0.200
21.678,-0.195
21.681,-0.190
21.683,-0.185
21.686,-0.200
21.689,-0.200
21.692,-0.210
21.694,-0.215
21.697,-0.220
21.700,-0.225
21.703,-0.215
21.706,-0.210
21.708,-0.200
21.711,-0.195
21.714,-0.200
21.717,-0.185
21.719,-0.200
21.722,-0.185
21.725,-0.185
21.728,-0.170
21.731,-0.160
21.733,-0.170
21.736,-0.170
21.739,-0.215
21.742,-0.245
21.744,-0.310
21.747,-0.385
21.750,-0.485
21.753,-0.590
21.756,-0.650
21.758,-0.695
21.761,-0.695
21.764,-0.675
21.767,-0.600
21.769,-0.495
21.772,-0.415
21.775,-0.330
21.778,-0.275
21.781,-0.245
21.783,-0.225
21.786,-0.255
21.789,-0.265
21.792,-0.295
21.794,-0.310
21.797,-0.295
21.800,-0.255
21.803,-0.210
21.806,-0.175
21.808,-0.145
21.811,-0.130
21.814,-0.135
21.817,-0.120
21.819,-0.145
21.822,-0.150
21.825,-0.160
21.828,-0.160
21.831,-0.175
21.833,-0.165
21.836,-0.150
21.839,-0.165
21.842,-0.155
21.844,-0.145
21.847,-0.140
21.850,-0.140
21.853,-0.140
21.856,-0.150
21.858,-0.165
21.861,-0.160
21.864,-0.160
21.867,-0.165
21.869,-0.175
21.872,-0.150
21.875,-0.160
21.878,-0.135
21.881,-0.140
21.883,-0.145
21.886,-0.145
21.889,-0.145
21.892,-0.160
21.894,-0.160
21.897,-0.170
21.900,-0.175
21.903,-0.175
21.906,-0.170
21.908,-0.165
21.911,-0.160
21.914,-0.145
21.917,-0.140
21.919,-0.160
21.922,-0.160
21.925,-0.160
21.928,-0.165
21.931,-0.175
21.933,-0.185
21.936,-0.175
21.939,-0.170
21.942,-0.160
21.944,-0.150
21.947,-0.135
21.950,-0.155
21.953,-0.155
21.956,-0.160
21.958,-0.170
21.961,-0.165
21.964,-0.180
21.967,-0.190
21.969,-0.160
21.972,-0.175
21.975,-0.175
21.978,-0.160
21.981,-0.155
21.983,-0.155
21.986,-0.170
21.989,-0.155
21.992,-0.165
21.994,-0.180
21.997,-0.175
22.000,-0.185
22.003,-0.185
22.006,-0.185
22.008,-0.180
22.011,-0.165
22.014,-0.165
22.017,-0.160
22.019,-0.165
22.022,-0.160
22.025,-0.170
22.028,-0.190
22.031,-0.180
22.033,-0.190
22.036,-0.175
22.039,-0.170
22.042,-0.165
22.044,-0.165
22.047,-0.155
22.050,-0.155
22.053,-0.165
22.056,-0.155
22.058,-0.170
22.061,-0.175
22.064,-0.185
22.067,-0.185
22.069,-0.185
22.072,-0.185
22.075,-0.170
22.078,-0.165
22.081,-0.160
22.083,-0.160
22.086,-0.170
22.089,-0.170
22.092,-0.175
22.094,-0.175
22.097,-0.195
22.100,-0.190
22.103,-0.190
22.106,-0.185
22.108,-0.185
22.111,-0.180
22.114,-0.175
22.117,-0.175
22.119,-0.180
22.122,-0.195
22.125,-0.190
22.128,-0.180
22.131,-0.195
22.133,-0.185
22.136,-0.190
22.139,-0.180
22.142,-0.160
22.144,-0.155
22.147,-0.155
22.150,-0.155
22.153,-0.155
22.156,-0.155
22.158,-0.165
22.161,-0.175
22.164,-0.185
22.167,-0.180
22.169,-0.170
22.172,-0.160
22.175,-0.160
22.178,-0.150
22.181,-0.150
22.183,-0.140
22.186,-0.145
22.189,-0.150
22.192,-0.150
22.194,-0.160
22.197,-0.170
22.200,-0.170
22.203,-0.160
22.206,-0.160
22.208,-0.150
22.211,-0.150
22.214,-0.130
22.217,-0.135
22.219,-0.135
22.222,-0.150
22.225,-0.160
22.228,-0.160
22.231,-0.160
22.233,-0.170
22.236,-0.160
22.239,-0.145
22.242,-0.145
22.244,-0.145
22.247,-0.140
22.250,-0.135
22.253,-0.145
22.256,-0.140
22.258,-0.145
22.261,-0.155
22.264,-0.160
22.267,-0.160
22.269,-0.150
22.272,-0.150
22.275,-0.155
22.278,-0.145
22.281,-0.140
22.283,-0.130
22.286,-0.140
22.289,-0.135
22.292,-0.150
22.294,-0.155
22.297,-0.165
22.300,-0.170
22.303,-0.165
22.306,-0.155
22.308,-0.150
22.311,-0.155
22.314,-0.145
22.317,-0.135
22.319,-0.160
22.322,-0.160
22.325,-0.170
22.328,-0.165
22.331,-0.180
22.333,-0.170
22.336,-0.180
22.339,-0.165
22.342,-0.160
22.344,-0.155
22.347,-0.150
22.350,-0.150
22.353,-0.150
22.356,-0.160
22.358,-0.175
22.361,-0.170
22.364,-0.190
22.367,-0.185
22.369,-0.170
22.372,-0.170
22.375,-0.185
22.378,-0.175
22.381,-0.160
22.383,-0.160
22.386,-0.165
22.389,-0.165
22.392,-0.175
22.394,-0.185
22.397,-0.195
22.400,-0.200
22.403,-0.185
22.406,-0.180
22.408,-0.180
22.411,-0.170
22.414,-0.160
22.417,-0.155
22.419,-0.170
22.422,-0.165
22.425,-0.185
22.428,-0.190
22.431,-0.200
22.433,-0.190
22.436,-0.200
22.439,-0.195
22.442,-0.185
22.444,-0.170
22.447,-0.170
22.450,-0.165
22.453,-0.180
22.456,-0.165
22.458,-0.185
22.461,-0.190
22.464,-0.190
22.467,-0.205
22.469,-0.180
22.472,-0.180
22.475,-0.175
22.478,-0.170
22.481,-0.160
22.483,-0.165
22.486,-0.165
22.489,-0.160
22.492,-0.170
22.494,-0.160
22.497,-0.165
22.500,-0.155
22.503,-0.145
22.506,-0.140
22.508,-0.120
22.511,-0.105
22.514,-0.090
22.517,-0.080
22.519,-0.090
22.522,-0.100
22.525,-0.110
22.528,-0.130
22.531,-0.155
22.533,-0.175
22.536,-0.170
22.539,-0.180
22.542,-0.170
22.544,-0.160
22.547,-0.155
22.550,-0.130
22.553,-0.140
22.556,-0.150
22.558,-0.160
22.561,-0.175
22.564,-0.185
22.567,-0.170
22.569,-0.170
22.572,-0.160
22.575,-0.155
22.578,-0.150
22.581,-0.155
22.583,-0.165
22.586,-0.175
22.589,-0.180
22.592,-0.185
22.594,-0.200
22.597,-0.200
22.600,-0.215
22.603,-0.205
22.606,-0.205
22.608,-0.195
22.611,-0.205
22.614,-0.190
22.617,-0.170
22.619,-0.190
22.622,-0.190
22.625,-0.195
22.628,-0.215
22.631,-0.210
22.633,-0.205
22.636,-0.205
22.639,-0.200
22.642,-0.205
22.644,-0.180
22.647,-0.180
22.650,-0.175
22.653,-0.185
22.656,-0.175
22.658,-0.185
22.661,-0.200
22.664,-0.205
22.667,-0.205
22.669,-0.200
22.672,-0.200
22.675,-0.200
22.678,-0.185
22.681,-0.170
22.683,-0.185
22.686,-0.190
22.689,-0.180
22.692,-0.175
22.694,-0.170
22.697,-0.155
22.700,-0.160
22.703,-0.140
22.706,-0.155
22.708,-0.180
22.711,-0.215
22.714,-0.285
22.717,-0.370
22.719,-0.480
22.722,-0.575
22.725,-0.650
22.728,-0.680
22.731,-0.670
22.733,-0.620
22.736,-0.515
22.739,-0.425
22.742,-0.330
22.744,-0.260
22.747,-0.220
22.750,-0.195
22.753,-0.225
22.756,-0.235
22.758,-0.265
22.761,-0.290
22.764,-0.260
22.767,-0.230
22.769,-0.190
22.772,-0.140
22.775,-0.120
22.778,-0.105
22.781,-0.100
22.783,-0.105
22.786,-0.110
22.789,-0.115
22.792,-0.135
22.794,-0.135
22.797,-0.145
22.800,-0.145
22.803,-0.135
22.806,-0.145
22.808,-0.130
22.811,-0.125
22.814,-0.105
22.817,-0.115
22.819,-0.110
22.822,-0.120
22.825,-0.125
22.828,-0.120
22.831,-0.140
22.833,-0.140
22.836,-0.130
22.839,-0.140
22.842,-0.125
22.844,-0.120
22.847,-0.120
22.850,-0.115
22.853,-0.120
22.856,-0.115
22.858,-0.130
22.861,-0.135
22.864,-0.135
22.867,-0.145
22.869,-0.145
22.872,-0.135
22.875,-0.140
22.878,-0.130
22.881,-0.110
22.883,-0.130
22.886,-0.130
22.889,-0.135
22.892,-0.135
22.894,-0.140
22.897,-0.145
22.900,-0.155
22.903,-0.140
22.906,-0.150
22.908,-0.145
22.911,-0.140
22.914,-0.125
22.917,-0.125
22.919,-0.135
22.922,-0.135
22.925,-0.145
22.928,-0.140
22.931,-0.145
22.933,-0.160
22.936,-0.165
22.939,-0.140
22.942,-0.140
22.944,-0.140
22.947,-0.130
22.950,-0.120
22.953,-0.135
22.956,-0.140
22.958,-0.145
22.961,-0.140
22.964,-0.145
22.967,-0.160
22.969,-0.155
22.972,-0.155
22.975,-0.140
22.978,-0.130
22.981,-0.135
22.983,-0.130
22.986,-0.135
22.989,-0.135
22.992,-0.155
22.994,-0.155
22.997,-0.165
23.000,-0.165
23.003,-0.155
23.006,-0.160
23.008,-0.155
23.011,-0.145
23.014,-0.130
23.017,-0.125
23.019,-0.135
23.022,-0.145
23.025,-0.160
23.028,-0.160
23.031,-0.170
23.033,-0.170
23.036,-0.170
23.039,-0.165
23.042,-0.160
23.044,-0.150
23.047,-0.140
23.050,-0.140
23.053,-0.165
23.056,-0.150
23.058,-0.160
23.061,-0.170
23.064,-0.175
23.067,-0.165
23.069,-0.175
23.072,-0.155
23.075,-0.165
23.078,-0.150
23.081,-0.155
23.083,-0.155
23.086,-0.145
23.089,-0.140
23.092,-0.155
23.094,-0.150
23.097,-0.165
23.100,-0.155
23.103,-0.150
23.106,-0.150
23.108,-0.140
23.111,-0.120
23.114,-0.120
23.117,-0.120
23.119,-0.115
23.122,-0.115
23.125,-0.120
23.128,-0.120
23.131,-0.125
23.133,-0.135
23.136,-0.125
23.139,-0.120
23.142,-0.110
23.144,-0.105
23.147,-0.100
23.150,-0.100
23.153,-0.095
23.156,-0.100
23.158,-0.120
23.161,-0.120
23.164,-0.130
23.167,-0.130
23.169,-0.110
23.172,-0.120
23.175,-0.125
23.178,-0.110
23.181,-0.100
23.183,-0.095
23.186,-0.105
23.189,-0.100
23.192,-0.100
23.194,-0.110
23.197,-0.110
23.200,-0.125
23.203,-0.120
23.206,-0.120
23.208,-0.110
23.211,-0.110
23.214,-0.090
23.217,-0.085
23.219,-0.100
23.222,-0.090
23.225,-0.100
23.228,-0.100
23.231,-0.115
23.233,-0.130
23.236,-0.120
23.239,-0.115
23.242,-0.105
23.244,-0.110
23.247,-0.105
23.250,-0.100
23.253,-0.100
23.256,-0.105
23.258,-0.100
23.261,-0.120
23.264,-0.120
23.267,-0.125
23.269,-0.130
23.272,-0.125
23.275,-0.115
23.278,-0.120
23.281,-0.110
23.283,-0.095
23.286,-0.120
23.289,-0.115
23.292,-0.120
23.294,-0.130
23.297,-0.135
23.300,-0.145
23.303,-0.135
23.306,-0.140
23.308,-0.130
23.311,-0.125
23.314,-0.115
23.317,-0.110
23.319,-0.120
23.322,-0.125
23.325,-0.130
23.328,-0.130
23.331,-0.140
23.333,-0.145
23.336,-0.145
23.339,-0.145
23.342,-0.135
23.344,-0.130
23.347,-0.125
23.350,-0.115
23.353,-0.120
23.356,-0.115
23.358,-0.130
23.361,-0.140
23.364,-0.145
23.367,-0.160
23.369,-0.155
23.372,-0.145
23.375,-0.140
23.378,-0.130
23.381,-0.125
23.383,-0.115
23.386,-0.120
23.389,-0.130
23.392,-0.130
23.394,-0.150
23.397,-0.165
23.400,-0.150
23.403,-0.140
23.406,-0.155
23.408,-0.145
23.411,-0.135
23.414,-0.125
23.417,-0.125
23.419,-0.125
23.422,-0.135
23.425,-0.125
23.428,-0.125
23.431,-0.130
23.433,-0.135
23.436,-0.135
23.439,-0.115
23.442,-0.105
23.444,-0.085
23.447,-0.070
23.450,-0.060
23.453,-0.065
23.456,-0.075
23.458,-0.070
23.461,-0.085
23.464,-0.095
23.467,-0.115
23.469,-0.120
23.472,-0.125
23.475,-0.135
23.478,-0.140
23.481,-0.125
23.483,-0.115
23.486,-0.110
23.489,-0.110
23.492,-0.115
23.494,-0.135
23.497,-0.135
23.500,-0.140
23.503,-0.130
23.506,-0.140
23.508,-0.130
23.511,-0.120
23.514,-0.115
23.517,-0.115
23.519,-0.135
23.522,-0.145
23.525,-0.150
23.528,-0.165
23.531,-0.170
23.533,-0.165
23.536,-0.150
23.539,-0.170
23.542,-0.160
23.544,-0.135
23.547,-0.140
23.550,-0.135
23.553,-0.145
23.556,-0.130
23.558,-0.135
23.561,-0.155
23.564,-0.150
23.567,-0.155
23.569,-0.150
23.572,-0.145
23.575,-0.145
23.578,-0.135
23.581,-0.135
23.583,-0.130
23.586,-0.140
23.589,-0.140
23.592,-0.135
23.594,-0.155
23.597,-0.150
23.600,-0.160
23.603,-0.160
23.606,-0.145
23.608,-0.140
23.611,-0.140
23.614,-0.125
23.617,-0.110
23.619,-0.105
23.622,-0.110
23.625,-0.090
23.628,-0.105
23.631,-0.130
23.633,-0.180
23.636,-0.230
23.639,-0.300
23.642,-0.380
23.644,-0.455
23.647,-0.530
23.650,-0.560
23.653,-0.565
23.656,-0.525
23.658,-0.465
23.661,-0.380
23.664,-0.300
23.667,-0.220
23.669,-0.150
23.672,-0.135
23.675,-0.110
23.678,-0.115
23.681,-0.135
23.683,-0.165
23.686,-0.175
23.689,-0.175
23.692,-0.160
23.694,-0.130
23.697,-0.105
23.700,-0.100
23.703,-0.095
23.706,-0.090
23.708,-0.095
23.711,-0.090
23.714,-0.095
23.717,-0.080
23.719,-0.085
23.722,-0.075
23.725,-0.095
23.728,-0.110
23.731,-0.110
23.733,-0.110
23.736,-0.115
23.739,-0.100
23.742,-0.090
23.744,-0.090
23.747,-0.080
23.750,-0.075
23.753,-0.080
23.756,-0.090
23.758,-0.095
23.761,-0.100
23.764,-0.115
23.767,-0.115
23.769,-0.115
23.772,-0.110
23.775,-0.100
23.778,-0.105
23.781,-0.085
23.783,-0.090
23.786,-0.095
23.789,-0.095
23.792,-0.095
23.794,-0.110
23.797,-0.120
23.800,-0.110
23.803,-0.125
23.806,-0.115
23.808,-0.105
23.811,-0.100
23.814,-0.100
23.817,-0.100
23.819,-0.095
23.822,-0.100
23.825,-0.105
23.828,-0.120
23.831,-0.125
23.833,-0.120
23.836,-0.125
23.839,-0.120
23.842,-0.105
23.844,-0.100
23.847,-0.110
23.850,-0.100
23.853,-0.100
23.856,-0.100
23.858,-0.110
23.861,-0.115
23.864,-0.130
23.867,-0.120
23.869,-0.135
23.872,-0.125
23.875,-0.120
23.878,-0.110
23.881,-0.100
23.883,-0.105
23.886,-0.110
23.889,-0.110
23.892,-0.120
23.894,-0.120
23.897,-0.140
23.900,-0.150
23.903,-0.130
23.906,-0.130
23.908,-0.135
23.911,-0.115
23.914,-0.105
23.917,-0.105
23.919,-0.115
23.922,-0.110
23.925,-0.115
23.928,-0.135
23.931,-0.140
23.933,-0.140
23.936,-0.145
23.939,-0.140
23.942,-0.130
23.944,-0.125
23.947,-0.120
23.950,-0.110
23.953,-0.115
23.956,-0.130
23.958,-0.125
23.961,-0.150
23.964,-0.150
23.967,-0.145
23.969,-0.150
23.972,-0.140
23.975,-0.145
23.978,-0.140
23.981,-0.120
23.983,-0.125
23.986,-0.120
23.989,-0.135
23.992,-0.140
23.994,-0.145
23.997,-0.150
24.000,-0.150
24.003,-0.160
24.006,-0.135
24.008,-0.135
24.011,-0.145
24.014,-0.135
24.017,-0.120
24.019,-0.130
24.022,-0.130
24.025,-0.140
24.028,-0.145
24.031,-0.135
24.033,-0.140
24.036,-0.140
24.039,-0.140
24.042,-0.125
24.044,-0.110
24.047,-0.095
24.050,-0.095
24.053,-0.095
24.056,-0.100
24.058,-0.095
24.061,-0.090
24.064,-0.100
24.067,-0.115
24.069,-0.110
24.072,-0.090
24.075,-0.100
24.078,-0.080
24.081,-0.090
24.083,-0.075
24.086,-0.085
24.089,-0.080
24.092,-0.070
24.094,-0.090
24.097,-0.085
24.100,-0.080
24.103,-0.105
24.106,-0.095
24.108,-0.090
24.111,-0.075
24.114,-0.075
24.117,-0.065
24.119,-0.060
24.122,-0.085
24.125,-0.075
24.128,-0.080
24.131,-0.085
24.133,-0.095
24.136,-0.090
24.139,-0.090
24.142,-0.085
24.144,-0.080
24.147,-0.070
24.150,-0.060
24.153,-0.060
24.156,-0.080
24.158,-0.085
24.161,-0.085
24.164,-0.080
24.167,-0.100
24.169,-0.100
24.172,-0.090
24.175,-0.085
24.178,-0.075
24.181,-0.070
24.183,-0.075
24.186,-0.070
24.189,-0.080
24.192,-0.095
24.194,-0.090
24.197,-0.095
24.200,-0.100
24.203,-0.110
24.206,-0.095
24.208,-0.090
24.211,-0.075
24.214,-0.075
24.217,-0.070
24.219,-0.075
24.222,-0.080
24.225,-0.090
24.228,-0.100
24.231,-0.110
24.233,-0.100
24.236,-0.130
24.239,-0.105
24.242,-0.105
24.244,-0.090
24.247,-0.080
24.250,-0.080
24.253,-0.090
24.256,-0.090
24.258,-0.095
24.261,-0.105
24.264,-0.105
24.267,-0.100
24.269,-0.105
24.272,-0.115
24.275,-0.095
24.278,-0.090
24.281,-0.085
24.283,-0.080
24.286,-0.080
24.289,-0.080
24.292,-0.090
24.294,-0.095
24.297,-0.105
24.300,-0.095
24.303,-0.080
24.306,-0.080
24.308,-0.070
24.311,-0.060
24.314,-0.045
24.317,-0.025
24.319,-0.020
24.322,-0.035
24.325,-0.035
24.328,-0.055
24.331,-0.070
24.333,-0.075
24.336,-0.095
24.339,-0.100
24.342,-0.105
24.344,-0.095
24.347,-0.110
24.350,-0.075
24.353,-0.070
24.356,-0.070
24.358,-0.070
24.361,-0.095
24.364,-0.090
24.367,-0.100
24.369,-0.110
24.372,-0.090
24.375,-0.095
24.378,-0.085
24.381,-0.090
24.383,-0.075
24.386,-0.090
24.389,-0.105
24.392,-0.105
24.394,-0.115
24.397,-0.125
24.400,-0.130
24.403,-0.135
24.406,-0.130
24.408,-0.120
24.411,-0.120
24.414,-0.110
24.417,-0.085
24.419,-0.100
24.422,-0.110
24.425,-0.120
24.428,-0.135
24.431,-0.135
24.433,-0.130
24.436,-0.140
24.439,-0.135
24.442,-0.130
24.444,-0.125
24.447,-0.110
24.450,-0.110
24.453,-0.105
24.456,-0.120
24.458,-0.115
24.461,-0.120
24.464,-0.130
24.467,-0.135
24.469,-0.130
24.472,-0.125
24.475,-0.130
24.478,-0.115
24.481,-0.110
24.483,-0.100
24.486,-0.095
24.489,-0.090
24.492,-0.065
24.494,-0.080
24.497,-0.105
24.500,-0.130
24.503,-0.170
24.506,-0.240
24.508,-0.305
24.511,-0.400
24.514,-0.485
